2558 0.4892582558 0.4880372558 0.4882812558 0.4821782559 0.4824222559 0.478762559 0.478762559 0.4743652560 0.478762560 0.4812012560 0.4943852560 0.4948732561 0.5002442561 0.5036622561 0.5026862561 0.5039062562 0.5004882562 0.4960942562 0.4963382562 0.4941412563 0.4941412563 0.492922563 0.5026862563 0.4960942564 0.5021972564 0.4982912564 0.4968262564 0.4946292565 0.4948732565 0.4948732565 0.4938962565 0.4909672566 0.4926762566 0.4909672566 0.492922566 0.492922567 0.4941412574 0.5007322574 0.5065922574 0.5034182574 0.5017092575 0.5007322575 0.4982912575 0.4978032575 0.4963382576 0.4968262576 0.4978032576 0.4948732576 0.495852577 0.492922577 0.492922577 0.4921882577 0.4909672578 0.4909672578 0.4870612578 0.4963382578 0.4890142579 0.492922579 0.492922579 0.4863282579 0.4907232580 0.4890142580 0.4909672580 0.4890142580 0.4904792581 0.4890142581 0.4890142581 0.4907232581 0.4890142582 0.4909672582 0.4851072582 0.4890142582 0.4907232583 0.489992591 0.4851072591 0.4812012591 0.4772952591 0.4772952592 0.4733892592 0.4792482592 0.4848632592 0.4851072593 0.4919432593 0.4963382593 0.5056152593 0.5122072594 0.5163572594 0.5175782594 0.5122072594 0.5097662595 0.5097662595 0.5058592595 0.5046392595 0.5026862596 0.504152596 0.5026862596 0.4987792596 0.5024412597 0.4946292597 0.4909672597 0.489992597 0.4882812598 0.488772598 0.4870612598 0.489992598 0.4865722599 0.4909672599 0.4902342599 0.4890142599 0.4904792607 0.482912607 0.4860842607 0.4948732607 0.5104982608 0.5217292608 0.5292972608 0.5261232608 0.5297852609 0.5280762609 0.5124512609 0.5075682609 0.5046392610 0.5046392610 0.5046392610 0.5053712610 0.504152611 0.5024412611 0.5046392611 0.5056152611 0.5114752612 0.5078122612 0.5085452612 0.5085452612 0.5065922613 0.5046392613 0.5085452613 0.5065922613 0.5039062614 0.5063482614 0.5058592614 0.5046392614 0.5046392614 0.5017092615 0.5024412615 0.4968262615 0.492922615 0.4948732627 0.492922627 0.4968262627 0.4946292627 0.4960942628 0.4987792628 0.495852628 0.4968262628 0.4987792629 0.5007322629 0.4987792629 0.5026862629 0.5007322630 0.4997562630 0.4997562630 0.5007322630 0.5075682631 0.4987792631 0.4985352631 0.4960942631 0.4938962632 0.4980472632 0.4948732632 0.492922632 0.492922633 0.4946292633 0.4968262633 0.4987792633 0.5026862634 0.5026862634 0.5043952634 0.5007322634 0.5007322635 0.4948732635 0.495852635 0.4921882635 0.492922636 0.489992647 0.4982912647 0.4936522647 0.4948732647 0.4948732648 0.4982912648 0.4948732648 0.4987792648 0.4968262649 0.4960942649 0.4987792649 0.4965822649 0.4985352650 0.4987792650 0.4968262650 0.5007322650 0.4987792651 0.4987792651 0.5026862651 0.4948732651 0.5004882652 0.4946292652 0.4985352652 0.4968262652 0.4987792653 0.4982912653 0.4987792653 0.4987792653 0.5007322654 0.4985352654 0.4987792654 0.492922654 0.4948732655 0.4965822655 0.4943852655 0.4919432655 0.4851072656 0.4841312663 0.4904792663 0.4851072663 0.4870612663 0.4860842664 0.4863282664 0.4841312664 0.4824222664 0.4846192665 0.4841312665 0.4851072665 0.4885252665 0.4882812666 0.4948732666 0.5002442666 0.5036622666 0.5056152667 0.5026862667 0.5026862667 0.5019532667 0.4985352668 0.495852668 0.4948732668 0.4982912668 0.495852669 0.4968262669 0.4943852669 0.4968262669 0.4946292670 0.4978032670 0.4960942670 0.5026862670 0.52671 0.4992682671 0.5017092671 0.5036622671 0.5019532671 0.5004882679 0.4982912679 0.4946292679 0.492922679 0.4909672680 0.4890142680 0.4870612680 0.4851072680 0.4870612681 0.4890142681 0.4919432681 0.492922681 0.4882812682 0.492922682 0.4890142682 0.4868162682 0.4909672683 0.4831542683 0.4831542683 0.488772683 0.4890142684 0.492922684 0.492922684 0.4948732684 0.4946292685 0.4921882685 0.4904792685 0.4909672685 0.4882812686 0.4907232686 0.4919432686 0.4919432686 0.4851072687 0.4848632687 0.4870612687 0.4919432687 0.4916992688 0.4890142696 0.4907232696 0.4919432696 0.492922696 0.4919432697 0.492922697 0.492922697 0.4909672697 0.4885252698 0.4926762698 0.492922698 0.4890142698 0.4909672699 0.4909672699 0.4885252699 0.4902342699 0.489992700 0.4909672700 0.4880372700 0.4846192700 0.4851072701 0.4826662701 0.4851072701 0.4831542701 0.488772702 0.4860842702 0.4890142702 0.4916992702 0.4909672702 0.492922703 0.492922703 0.4909672703 0.489992703 0.489992704 0.4890142704 0.488772704 0.4909672704 0.489992713 0.4982912713 0.4963382713 0.4965822713 0.4948732714 0.4946292714 0.4948732714 0.4948732714 0.4965822715 0.4919432715 0.4924322715 0.4890142715 0.4909672716 0.4890142716 0.4870612716 0.4890142716 0.4909672717 0.489992717 0.4895022717 0.4890142717 0.4890142718 0.4870612718 0.4909672718 0.489992718 0.4870612719 0.4851072719 0.4807132719 0.4792482719 0.4753422719 0.4792482720 0.4802252720 0.4792482720 0.4812012720 0.4812012721 0.4821782721 0.4785162721 0.4772952721 0.4753422733 0.504152733 0.5046392733 0.5046392733 0.5017092734 0.4987792734 0.4968262734 0.4948732734 0.495852735 0.4987792735 0.495852735 0.4921882735 0.4909672736 0.4865722736 0.4851072736 0.4826662736 0.4826662737 0.4851072737 0.4804692737 0.4812012737 0.4792482738 0.4792482738 0.4841312738 0.4882812738 0.4921882739 0.4948732739 0.4987792739 0.5007322739 0.495852740 0.4907232740 0.4948732740 0.5007322740 0.5144042741 0.4938962741 0.4985352741 0.4968262741 0.4982912742 0.4941412753 0.5002442753 0.4987792753 0.4982912753 0.5004882754 0.5026862754 0.4968262754 0.4978032754 0.4968262755 0.495852755 0.4948732755 0.4919432755 0.4960942756 0.492922756 0.4885252756 0.4909672756 0.4890142757 0.4870612757 0.4868162757 0.4826662757 0.4851072758 0.4831542758 0.4904792758 0.4880372758 0.485842759 0.4870612759 0.4831542759 0.482912759 0.4848632760 0.4826662760 0.4841312760 0.4831542760 0.4851072761 0.4909672761 0.4882812761 0.4880372761 0.492922762 0.4987792769 0.4987792769 0.4968262769 0.4968262769 0.4943852770 0.4975592770 0.5024412770 0.5024412770 0.5026862771 0.5046392771 0.4968262771 0.4968262771 0.495852772 0.4968262772 0.4943852772 0.5007322772 0.4963382773 0.492922773 0.4948732773 0.4960942773 0.4948732774 0.4982912774 0.4982912774 0.4948732774 0.4968262775 0.4936522775 0.4946292775 0.492922775 0.4924322776 0.4948732776 0.4909672776 0.488772776 0.4890142777 0.5043952777 0.4921882777 0.4948732777 0.4982912778 0.4975592785 0.4948732785 0.4968262785 0.4968262785 0.4965822786 0.4938962786 0.4968262786 0.4963382786 0.495852787 0.4948732787 0.492922787 0.4909672787 0.4938962788 0.4948732788 0.4943852788 0.4943852788 0.492922789 0.4985352789 0.4941412789 0.4909672789 0.4921882790 0.4968262790 0.492922790 0.4919432790 0.4946292791 0.4980472791 0.4926762791 0.4948732791 0.4948732792 0.4948732792 0.4968262792 0.52792 0.4987792793 0.502932793 0.5056152793 0.5021972793 0.5058592794 0.5002442802 0.492922802 0.4909672802 0.4941412802 0.4938962803 0.4880372803 0.4946292803 0.4890142803 0.4909672804 0.4968262804 0.492922804 0.489992804 0.4924322805 0.492922805 0.4890142805 0.4909672805 0.4941412806 0.4948732806 0.4968262806 0.492922806 0.4948732806 0.4960942807 0.4963382807 0.4948732807 0.4960942807 0.4919432808 0.4968262808 0.495852808 0.4968262808 0.4987792809 0.4941412809 0.4963382809 0.4956052809 0.4948732810 0.4987792810 0.4987792810 0.4987792810 0.4968262819 0.4865722819 0.4860842819 0.4846192819 0.4880372820 0.4851072820 0.489992820 0.4904792820 0.4870612821 0.4904792821 0.4907232821 0.4924322821 0.4909672822 0.4924322822 0.4948732822 0.4965822822 0.492922823 0.4980472823 0.4963382823 0.4948732823 0.4968262824 0.4968262824 0.4987792824 0.4948732824 0.4924322825 0.4938962825 0.4909672825 0.492922825 0.4907232826 0.492922826 0.492922826 0.492922826 0.4941412827 0.4956052827 0.492922827 0.4948732827 0.4943852827 0.492922839 0.4907232839 0.4870612839 0.4924322839 0.4890142840 0.4880372840 0.4843752840 0.4882812840 0.4868162841 0.4782712841 0.4882812841 0.4904792841 0.4885252842 0.4890142842 0.4909672842 0.4909672842 0.4909672843 0.4909672843 0.4924322843 0.4968262843 0.4909672844 0.492922844 0.4948732844 0.4909672844 0.4926762845 0.492922845 0.492922845 0.492922845 0.492922846 0.492922846 0.4909672846 0.4885252846 0.4909672846 0.489992847 0.4909672847 0.492922847 0.4948732847 0.4965822859 0.4831542859 0.4851072859 0.489992859 0.4948732860 0.4968262860 0.5046392860 0.5046392860 0.504152861 0.5085452861 0.4987792861 0.5104982861 0.5102542862 0.5085452862 0.5061042862 0.5021972862 0.4987792863 0.4921882863 0.4890142863 0.4821782863 0.4790042864 0.4763182864 0.4753422864 0.4804692864 0.4870612865 0.4904792865 0.4904792865 0.4919432865 0.4921882866 0.492922866 0.4921882866 0.4938962866 0.492922867 0.4943852867 0.4968262867 0.4963382867 0.4987792868 0.5007322875 0.5080572875 0.5065922875 0.4987792875 0.4987792876 0.4968262876 0.492922876 0.4948732876 0.4904792877 0.4948732877 0.4909672877 0.4882812877 0.488772878 0.4919432878 0.492922878 0.4909672878 0.4880372879 0.4870612879 0.492922879 0.4907232879 0.4880372879 0.4885252880 0.4904792880 0.4902342880 0.4882812880 0.4909672881 0.4851072881 0.4826662881 0.4870612881 0.4846192882 0.4870612882 0.4870612882 0.4870612882 0.4851072883 0.4890142883 0.4868162883 0.4865722883 0.4885252891 0.5007322891 0.5007322891 0.5017092891 0.5021972892 0.5017092892 0.4968262892 0.52892 0.4987792893 0.4987792893 0.5017092893 0.4963382893 0.4987792894 0.4851072894 0.5007322894 0.4938962894 0.4968262895 0.4987792895 0.4968262895 0.4960942895 0.4965822896 0.4948732896 0.5065922896 0.4946292896 0.4963382897 0.4909672897 0.4968262897 0.492922897 0.489992898 0.4880372898 0.4902342898 0.4870612898 0.4890142899 0.4931642899 0.4890142899 0.4902342899 0.4890142899 0.4890142908 0.4963382908 0.4968262908 0.4978032908 0.4968262909 0.4987792909 0.4960942909 0.5007322909 0.4978032910 0.5002442910 0.4985352910 0.4982912910 0.4968262911 0.4982912911 0.4948732911 0.4985352911 0.4963382912 0.4987792912 0.5007322912 0.5007322912 0.4980472913 0.4987792913 0.4987792913 0.4975592913 0.4963382914 0.4987792914 0.5007322914 0.4987792914 0.4982912915 0.4965822915 0.5058592915 0.4934082915 0.4938962916 0.492922916 0.4904792916 0.4965822916 0.4914552917 0.4924322925 0.4919432925 0.492922925 0.492922925 0.4960942926 0.4938962926 0.4948732926 0.4938962926 0.492922927 0.492922927 0.4948732927 0.4946292927 0.4982912928 0.4978032928 0.4985352928 0.497072928 0.4995122929 0.4985352929 0.4987792929 0.4965822929 0.4987792930 0.4987792930 0.4943852930 0.5019532930 0.5039062931 0.5043952931 0.5026862931 0.5026862931 0.5004882932 0.4968262932 0.4982912932 0.4968262932 0.4968262933 0.4985352933 0.4968262933 0.4968262933 0.4987792934 0.4982912945 0.4965822945 0.4968262945 0.4987792945 0.5026862946 0.5021972946 0.5019532946 0.5002442946 0.4985352947 0.4968262947 0.4997562947 0.4948732947 0.4980472948 0.5007322948 0.5002442948 0.4987792948 0.4987792949 0.4946292949 0.4968262949 0.4890142949 0.4870612950 0.4882812950 0.4941412950 0.4890142950 0.492922951 0.492922951 0.492922951 0.4968262951 0.4890142952 0.4965822952 0.5007322952 0.4968262952 0.4978032953 0.4968262953 0.4987792953 0.5017092953 0.489992954 0.4980472965 0.4926762965 0.4909672965 0.4943852965 0.4941412966 0.4968262966 0.4965822966 0.492922966 0.4943852967 0.4948732967 0.495852967 0.4948732967 0.4948732968 0.492922968 0.492922968 0.4941412968 0.4948732969 0.4963382969 0.4924322969 0.5002442969 0.4965822970 0.4968262970 0.5012212970 0.4948732970 0.4987792971 0.4968262971 0.5017092971 0.5046392971 0.5046392972 0.5017092972 0.5026862972 0.5007322972 0.5039062973 0.4968262973 0.5002442973 0.4943852973 0.4946292981 0.4936522981 0.492922981 0.4926762981 0.4890142982 0.4909672982 0.4909672982 0.4921882982 0.4909672983 0.4909672983 0.4907232983 0.4909672983 0.4904792984 0.4902342984 0.4924322984 0.4890142984 0.4948732985 0.492922985 0.4946292985 0.4919432985 0.4934082986 0.4968262986 0.492922986 0.492922986 0.492922987 0.495852987 0.4931642987 0.4943852987 0.4987792988 0.5007322988 0.4948732988 0.4982912988 0.4831542989 0.4948732989 0.4946292989 0.4870612989 0.4978032990 0.492922990 0.4968262997 0.4978032997 0.4943852997 0.492922997 0.4919432998 0.4919432998 0.4919432998 0.4924322998 0.4919432999 0.4926762999 0.492922999 0.4907232999 0.4851073000 0.4870613000 0.492923000 0.4963383000 0.4926763001 0.4968263001 0.4943853001 0.4870613001 0.4968263001 0.495853002 0.4938963002 0.492923002 0.488773002 0.489993003 0.4851073003 0.4831543003 0.4841313003 0.4851073004 0.4870613004 0.4870613004 0.4826663004 0.4865723005 0.4870613005 0.4968263005 0.492923005 0.488773014 0.4980473014 0.5002443014 0.4968263014 0.4968263015 0.4980473015 0.4997563015 0.4963383015 0.4948733016 0.4938963016 0.4926763016 0.492923016 0.492923017 0.4890143017 0.4890143017 0.4890143017 0.4880373018 0.4907233018 0.4890143018 0.4919433018 0.4919433019 0.4907233019 0.4851073019 0.4890143019 0.4904793020 0.4890143020 0.4885253020 0.4924323020 0.488773020 0.4831543021 0.4924323021 0.4890143021 0.4885253021 0.4890143022 0.4907233022 0.4863283022 0.4868163022 0.4909673031 0.4987793031 0.4968263031 0.5026863031 0.4985353032 0.4968263032 0.4980473032 0.5002443032 0.4968263033 0.4948733033 0.4963383033 0.4938963033 0.4963383034 0.4968263034 0.4919433034 0.495853034 0.4890143035 0.4938963035 0.4909673035 0.492923035 0.4946293036 0.4987793036 0.4980473036 0.4963383036 0.4968263037 0.4987793037 0.4963383037 0.492923037 0.4919433038 0.4909673038 0.4902343038 0.4890143038 0.489993039 0.4890143039 0.4921883039 0.4890143039 0.4890143050 0.4948733050 0.4982913050 0.4968263050 0.4948733051 0.4982913051 0.4982913051 0.4968263051 0.5019533052 0.5017093052 0.4953613052 0.4987793052 0.4968263053 0.4987793053 0.4968263053 0.5021973053 0.5004883054 0.4968263054 0.4946293054 0.4948733054 0.4948733055 0.495853055 0.495853055 0.4948733055 0.4946293056 0.492923056 0.4919433056 0.492923056 0.4948733057 0.492923057 0.4904793057 0.4921883057 0.4919433058 0.492923058 0.4924323058 0.4946293058 0.4890143059 0.4909673070 0.4960943070 0.4963383070 0.5007323070 0.4965823071 0.4938963071 0.4963383071 0.4948733071 0.4968263072 0.4948733072 0.4948733072 0.495853072 0.4948733073 0.4951173073 0.4968263073 0.4948733073 0.5002443074 0.4982913074 0.4982913074 0.4943853074 0.4985353075 0.4987793075 0.4968263075 0.4948733075 0.4963383076 0.4948733076 0.4904793076 0.4960943076 0.4916993076 0.4926763077 0.492923077 0.4909673077 0.492923077 0.4909673078 0.4909673078 0.4919433078 0.4926763078 0.4924323086 0.492923086 0.4919433086 0.4926763086 0.492923087 0.4926763087 0.492923087 0.4963383087 0.4987793088 0.4948733088 0.4968263088 0.4985353088 0.4965823089 0.4968263089 0.4978033089 0.4946293089 0.4978033090 0.4963383090 0.4982913090 0.4992683090 0.4948733091 0.5021973091 0.4870613091 0.4968263091 0.4987793092 0.4975593092 0.4943853092 0.4948733092 0.495853092 0.4948733093 0.4960943093 0.4968263093 0.4948733093 0.4938963094 0.4963383094 0.4995123094 0.4948733094 0.4946293102 0.4880373102 0.4870613102 0.4885253102 0.4870613103 0.4890143103 0.4831543103 0.4870613103 0.4870613104 0.4909673104 0.488773104 0.489993104 0.492923105 0.4924323105 0.492923105 0.4987793105 0.495853106 0.4946293106 0.492923106 0.4943853106 0.4968263106 0.4946293107 0.4948733107 0.4968263107 0.4948733107 0.4987793108 0.4982913108 0.4987793108 0.4987793108 0.5007323109 0.4948733109 0.4963383109 0.4968263109 0.4987793110 0.4963383110 0.4821783110 0.5019533110 0.4973143119 0.495853119 0.4965823119 0.4948733119 0.492923120 0.492923120 0.4907233120 0.4904793120 0.4909673121 0.4902343121 0.4863283121 0.4885253121 0.4870613122 0.488773122 0.488773122 0.4860843122 0.488773123 0.4890143123 0.4909673123 0.4890143123 0.4902343124 0.4909673124 0.4909673124 0.4882813124 0.4897463124 0.4909673125 0.4924323125 0.4948733125 0.4948733125 0.4948733126 0.4948733126 0.492923126 0.4978033126 0.4938963127 0.492923127 0.4948733127 0.5004883127 0.4968263136 0.5007323136 0.4985353136 0.4965823136 0.4987793137 0.4948733137 0.492923137 0.492923137 0.4924323138 0.4909673138 0.4909673138 0.4812013138 0.4924323139 0.4904793139 0.4909673139 0.4926763139 0.4909673140 0.489993140 0.4890143140 0.4772953140 0.4921883141 0.4890143141 0.4885253141 0.488773141 0.488773142 0.4909673142 0.4885253142 0.4831543142 0.4890143143 0.4870613143 0.4902343143 0.4880373143 0.4890143144 0.4909673144 0.489993144 0.4960943144 0.4946293145 0.4924323156 0.492923156 0.4926763156 0.4909673156 0.4924323157 0.4890143157 0.4924323157 0.4902343157 0.4909673158 0.492923158 0.4921883158 0.4926763158 0.4948733159 0.4870613159 0.4890143159 0.4841313159 0.4870613160 0.4909673160 0.4882813160 0.4870613160 0.4880373161 0.4924323161 0.488773161 0.4868163161 0.4846193162 0.4865723162 0.4865723162 0.4831543162 0.4865723163 0.4831543163 0.4851073163 0.4870613163 0.489993164 0.4890143164 0.4904793164 0.489993164 0.492923165 0.4909673176 0.4948733176 0.4921883176 0.492923176 0.4909673177 0.4926763177 0.4924323177 0.4909673177 0.4948733178 0.4909673178 0.4924323178 0.4963383178 0.4909673179 0.4938963179 0.4909673179 0.4909673179 0.4902343180 0.4880373180 0.4909673180 0.4890143180 0.4982913181 0.4909673181 0.4860843181 0.4909673181 0.4890143182 0.4870613182 0.4882813182 0.4882813182 0.489993183 0.4882813183 0.489993183 0.4909673183 0.4890143184 0.4890143184 0.4885253184 0.4921883184 0.4909673185 0.489993192 0.4987793192 0.5007323192 0.5007323192 0.4980473193 0.4997563193 0.4965823193 0.5007323193 0.4978033194 0.4982913194 0.5004883194 0.4968263194 0.4968263195 0.4968263195 0.4948733195 0.4963383195 0.4948733196 0.4943853196 0.4987793196 0.492923196 0.4938963197 0.4965823197 0.4941413197 0.492923197 0.4987793198 0.492923198 0.4890143198 0.4909673198 0.4904793199 0.4885253199 0.492923199 0.4909673199 0.4907233200 0.4824223200 0.4868163200 0.489993200 0.4841313200 0.5014653208 0.4968263208 0.5007323208 0.4943853208 0.4963383209 0.5017093209 0.4982913209 0.4968263209 0.4987793210 0.4968263210 0.4978033210 0.4968263210 0.4968263211 0.5058593211 0.5017093211 0.5017093211 0.4987793212 0.5095213212 0.4982913212 0.5002443212 0.4987793213 0.4987793213 0.4987793213 0.4978033213 0.4978033214 0.4987793214 0.4948733214 0.4924323214 0.4909673215 0.4919433215 0.4909673215 0.4919433215 0.4907233216 0.4892583216 0.489993216 0.492923216 0.4909673216 0.4960943225 0.4948733225 0.4948733225 0.4968263225 0.5014653226 0.4968263226 0.4987793226 0.4968263226 0.5007323227 0.4978033227 0.4995123227 0.4978033227 0.5026863228 0.4985353228 0.4987793228 0.5104983228 0.4987793229 0.5046393229 0.5039063229 0.5036623229 0.4948733230 0.4987793230 0.510013230 0.5026863230 0.5002443231 0.5061043231 0.5007323231 0.4987793231 0.5019533232 0.4948733232 0.4965823232 0.4997563232 0.5026863233 0.4987793233 0.4948733233 0.4985353233 0.4968263242 0.4907233242 0.4870613242 0.4924323242 0.4921883243 0.4890143243 0.4909673243 0.488773243 0.488773244 0.4885253244 0.4890143244 0.4890143244 0.4938963245 0.4941413245 0.4946293245 0.492923245 0.4946293246 0.492923246 0.4978033246 0.492923246 0.4963383247 0.4938963247 0.4926763247 0.495853247 0.4943853248 0.4968263248 0.4943853248 0.4987793248 0.4948733249 0.4968263249 0.4978033249 0.4987793249 0.4948733250 0.4982913250 0.4978033250 0.4963383250 0.4965823250 0.4987793261 0.4890143261 0.4880373261 0.4885253261 0.4870613262 0.4890143262 0.4890143262 0.4890143262 0.4880373263 0.4870613263 0.4890143263 0.4904793263 0.4909673264 0.4890143264 0.4907233264 0.489993264 0.4890143265 0.492923265 0.4919433265 0.4924323265 0.4909673266 0.4870613266 0.4909673266 0.4948733266 0.495853267 0.4968263267 0.4890143267 0.492923267 0.4948733267 0.4985353268 0.4965823268 0.4978033268 0.4968263268 0.4948733269 0.5053713269 0.4948733269 0.4965823269 0.4968263280 0.4890143280 0.4909673280 0.4890143280 0.4968263281 0.4941413281 0.4909673281 0.4890143281 0.4904793282 0.4909673282 0.4987793282 0.4909673282 0.492923283 0.492923283 0.4919433283 0.492923283 0.4924323284 0.492923284 0.4924323284 0.4941413284 0.492923285 0.4941413285 0.5026863285 0.4909673285 0.4968263286 0.4980473286 0.4968263286 0.495853286 0.4948733287 0.4990233287 0.4978033287 0.4987793287 0.4963383287 0.492923288 0.4948733288 0.492923288 0.4926763288 0.4963383296 0.4948733296 0.4946293296 0.492923296 0.4902343297 0.4938963297 0.4948733297 0.4924323297 0.4909673298 0.4909673298 0.492923298 0.4948733298 0.4907233299 0.4909673299 0.4948733299 0.4890143299 0.4924323300 0.4904793300 0.489993300 0.4885253300 0.4863283301 0.4904793301 0.492923301 0.4890143301 0.4909673302 0.4909673302 0.4895023302 0.488773302 0.4890143302 0.489993303 0.489993303 0.4890143303 0.4890143303 0.4902343304 0.489993304 0.4904793304 0.4870613304 0.4926763312 0.497073312 0.4968263312 0.4948733312 0.4921883313 0.4948733313 0.4968263313 0.4926763313 0.4965823314 0.4968263314 0.5026863314 0.5026863314 0.4968263315 0.4968263315 0.4982913315 0.4987793315 0.4968263316 0.4997563316 0.4965823316 0.4943853316 0.4946293317 0.4946293317 0.4943853317 0.4890143317 0.4909673318 0.4909673318 0.4895023318 0.492923318 0.4890143319 0.4882813319 0.4870613319 0.4848633319 0.4870613320 0.4865723320 0.4870613320 0.4821783320 0.4907233321 0.4919433329 0.4948733329 0.4965823329 0.4968263329 0.4968263330 0.4948733330 0.4987793330 0.4987793330 0.4968263331 0.4968263331 0.5026863331 0.4987793331 0.4987793332 0.5085453332 0.4987793332 0.4968263332 0.4968263333 0.495853333 0.4924323333 0.4943853333 0.4968263334 0.4941413334 0.4963383334 0.4968263334 0.4987793335 0.4992683335 0.4968263335 0.4980473335 0.4987793336 0.5007323336 0.4978033336 0.492923336 0.5002443337 0.5021973337 0.4987793337 0.4987793337 0.4968263338 0.5007323346 0.4946293346 0.4968263346 0.492923346 0.492923347 0.4948733347 0.4909673347 0.4948733347 0.4948733348 0.4987793348 0.4978033348 0.4968263348 0.5017093349 0.4980473349 0.4968263349 0.4980473349 0.4987793350 0.4982913350 0.4948733350 0.5019533350 0.4965823351 0.495853351 0.4987793351 0.4978033351 0.4985353352 0.4982913352 0.4926763352 0.5046393352 0.4963383353 0.4987793353 0.492923353 0.4960943353 0.4980473354 0.4987793354 0.4968263354 0.4978033354 0.4978033355 0.4965823366 0.4924323366 0.4960943366 0.492923366 0.4968263367 0.4982913367 0.5053713367 0.4997563367 0.4943853368 0.4968263368 0.4980473368 0.4968263368 0.5039063369 0.4948733369 0.4965823369 0.4965823369 0.5085453370 0.5007323370 0.4968263370 0.4968263370 0.4980473371 0.4987793371 0.4987793371 0.4985353371 0.4985353372 0.4980473372 0.4987793372 0.4968263372 0.4968263373 0.4978033373 0.4948733373 0.4963383373 0.4948733374 0.4963383374 0.4982913374 0.4987793374 0.4938963386 0.4948733386 0.4909673386 0.4948733386 0.4948733387 0.4943853387 0.4948733387 0.4963383387 0.4943853388 0.4978033388 0.4938963388 0.5002443388 0.5007323389 0.4975593389 0.5258793389 0.4968263389 0.4980473390 0.4987793390 0.5026863390 0.4968263390 0.5019533391 0.4995123391 0.4987793391 0.4982913391 0.4982913392 0.4987793392 0.4978033392 0.4982913392 0.4980473393 0.4982913393 0.4968263393 0.4968263393 0.4965823394 0.4963383394 0.4968263394 0.4946293394 0.4919433395 0.4943853402 0.4902343402 0.4909673402 0.4890143402 0.4890143403 0.4916993403 0.4890143403 0.4880373403 0.4907233404 0.4931643404 0.4909673404 0.4909673404 0.4924323405 0.4851073405 0.4909673405 0.4909673405 0.492923406 0.4941413406 0.492923406 0.4938963406 0.4938963406 0.4965823407 0.4985353407 0.4968263407 0.4968263407 0.4960943408 0.53408 0.4987793408 0.4987793408 0.4982913409 0.4948733409 0.492923409 0.4968263409 0.4987793410 0.4965823410 0.4978033410 0.4948733410 0.4965823418 0.4904793418 0.488773418 0.4907233418 0.4870613419 0.4919433419 0.488773419 0.4870613419 0.4890143420 0.4909673420 0.4792483420 0.4868163420 0.4909673421 0.4870613421 0.4890143421 0.4890143421 0.4907233422 0.4870613422 0.4870613422 0.4870613422 0.4870613422 0.4873053423 0.4890143423 0.4851073423 0.4863283423 0.4924323424 0.4919433424 0.4909673424 0.4909673424 0.492923425 0.495853425 0.4943853425 0.492923425 0.4941413426 0.4948733426 0.4948733426 0.492923426 0.4960943435 0.4924323435 0.4946293435 0.4968263435 0.4965823436 0.4919433436 0.492923436 0.4926763436 0.492923437 0.4938963437 0.4943853437 0.4909673437 0.4902343438 0.4909673438 0.4924323438 0.4904793438 0.4948733439 0.488773439 0.4987793439 0.4885253439 0.4865723440 0.4904793440 0.488773440 0.4860843440 0.4870613441 0.4885253441 0.4851073441 0.4851073441 0.4870613442 0.4870613442 0.4870613442 0.4868163442 0.4890143443 0.4873053443 0.4890143443 0.4909673443 0.4919433443 0.489993452 0.5046393452 0.5007323452 0.4987793452 0.4987793453 0.5039063453 0.4987793453 0.4987793453 0.4980473454 0.4987793454 0.4948733454 0.4948733454 0.4948733455 0.4946293455 0.4968263455 0.4943853455 0.4941413456 0.4946293456 0.4965823456 0.4897463456 0.4941413457 0.4926763457 0.4938963457 0.4948733457 0.4946293458 0.4924323458 0.4909673458 0.492923458 0.492923459 0.4907233459 0.4912113459 0.4919433459 0.4865723460 0.488773460 0.488773460 0.4841313460 0.4851073461 0.4865723472 0.4968263472 0.4987793472 0.4987793472 0.4965823473 0.4987793473 0.5026863473 0.495853473 0.5007323474 0.5043953474 0.495853474 0.4980473474 0.4968263475 0.4943853475 0.4948733475 0.4982913475 0.4968263476 0.4890143476 0.4909673476 0.4909673476 0.492923477 0.4919433477 0.4909673477 0.4907233477 0.4926763478 0.4941413478 0.4941413478 0.4909673478 0.4763183479 0.492923479 0.4948733479 0.489993479 0.4909673480 0.492923480 0.4885253480 0.489993480 0.4907233481 0.488773492 0.5007323492 0.4965823492 0.492923492 0.4938963493 0.4946293493 0.4948733493 0.4968263493 0.4987793494 0.4997563494 0.4987793494 0.4987793494 0.4963383495 0.495853495 0.4919433495 0.4946293495 0.4948733496 0.492923496 0.4938963496 0.4948733496 0.4948733497 0.4838873497 0.492923497 0.492923497 0.489993498 0.4890143498 0.4904793498 0.4890143498 0.4868163499 0.488773499 0.4909673499 0.4870613499 0.4885253500 0.4851073500 0.4870613500 0.4770513500 0.4909673500 0.4870613508 0.4987793508 0.5004883508 0.5014653508 0.4968263509 0.4968263509 0.4968263509 0.4987793509 0.5002443510 0.5024413510 0.5004883510 0.5007323510 0.4987793511 0.4963383511 0.4985353511 0.4978033511 0.5039063512 0.4968263512 0.4948733512 0.4968263512 0.4909673513 0.4943853513 0.495853513 0.4968263513 0.4943853514 0.4968263514 0.4948733514 0.4946293514 0.4960943515 0.4968263515 0.4948733515 0.492923515 0.4946293516 0.4943853516 0.4924323516 0.4924323516 0.4909673517 0.4841313524 0.4890143524 0.4909673524 0.4907233524 0.4909673525 0.4870613525 0.492923525 0.4943853525 0.4960943526 0.4968263526 0.4987793526 0.4975593526 0.4948733527 0.4968263527 0.4985353527 0.5007323527 0.4985353528 0.5026863528 0.5046393528 0.4948733528 0.495853529 0.4987793529 0.4985353529 0.4987793529 0.4926763530 0.4978033530 0.5026863530 0.4987793530 0.5004883531 0.5024413531 0.5002443531 0.5007323531 0.5034183532 0.4968263532 0.5004883532 0.5026863532 0.4985353533 0.4987793541 0.4851073541 0.4865723541 0.4836433541 0.4865723542 0.4851073542 0.4890143542 0.482913542 0.4851073543 0.4812013543 0.488773543 0.4860843543 0.4890143544 0.4880373544 0.4868163544 0.4868163544 0.4870613545 0.4880373545 0.488773545 0.4890143545 0.4851073546 0.4851073546 0.4943853546 0.4851073546 0.4880373547 0.4851073547 0.4865723547 0.4880373547 0.488773548 0.4909673548 0.4907233548 0.4902343548 0.4921883549 0.4941413549 0.4921883549 0.4938963549 0.4943853558 0.492923558 0.4946293558 0.4909673558 0.4941413559 0.4948733559 0.4948733559 0.489993559 0.4909673560 0.4909673560 0.4924323560 0.4968263560 0.4978033561 0.4987793561 0.4968263561 0.4941413561 0.4948733562 0.4943853562 0.4909673562 0.488773562 0.4885253563 0.4870613563 0.4882813563 0.4877933563 0.4890143564 0.4919433564 0.4948733564 0.4987793564 0.4997563565 0.5026863565 0.4987793565 0.5019533565 0.5017093566 0.5004883566 0.5021973566 0.5007323566 0.5043953566 0.4987793578 0.4792483578 0.4824223578 0.4831543578 0.4841313579 0.4870613579 0.4919433579 0.4909673579 0.492923580 0.488773580 0.492923580 0.492923580 0.492923581 0.4982913581 0.489993581 0.4909673581 0.4846193582 0.488773582 0.4831543582 0.4770513582 0.4714363583 0.4655763583 0.4597173583 0.4519043583 0.4558113584 0.4594733584 0.4597173584 0.4597173584 0.4604493584 0.4626463585 0.468753585 0.4731453585 0.4711913585 0.4689943586 0.4694823586 0.4792483586 0.4826663586 0.4841313598 0.4987793598 0.4948733598 0.492923598 0.4863283599 0.4831543599 0.4841313599 0.4870613599 0.4812013600 0.4831543600 0.4812013600 0.4843753600 0.4890143601 0.4890143601 0.4941413601 0.4963383601 0.4997563602 0.4948733602 0.4963383602 0.4885253602 0.4826663603 0.4782713603 0.4675293603 0.4558113603 0.4458013604 0.4411623604 0.4401863604 0.4372563604 0.441653604 0.4440923605 0.4472663605 0.4548343605 0.4636233605 0.4772953606 0.4870613606 0.4948733606 0.5124513606 0.5217293614 0.495853614 0.5021973614 0.5063483614 0.5134283615 0.5175783615 0.5214843615 0.5253913615 0.5319823616 0.5339363616 0.5378423616 0.53543616 0.5319823617 0.5290533617 0.5295413617 0.5219733617 0.514163618 0.5163573618 0.5026863618 0.4956053618 0.504153619 0.492923619 0.4987793619 0.5007323619 0.5024413620 0.4995123620 0.5007323620 0.4985353620 0.5007323621 0.492923621 0.4948733621 0.492923621 0.4907233622 0.4885253622 0.4882813622 0.4870613622 0.4868163623 0.4892583630 0.4726563630 0.4655763630 0.4667973630 0.4694823631 0.4714363631 0.4714363631 0.4724123631 0.4648443632 0.4636233632 0.4650883632 0.4692383632 0.4733893633 0.4826663633 0.4865723633 0.492923633 0.5039063634 0.5163573634 0.5222173634 0.524173634 0.524173635 0.524173635 0.5192873635 0.520023635 0.5180663636 0.5219733636 0.5183113636 0.5163573636 0.514163637 0.5124513637 0.5136723637 0.5180663637 0.5231933638 0.5278323638 0.5314943638 0.5339363638 0.5368653639 0.5339363647 0.4538573647 0.4533693647 0.4538573647 0.4597173648 0.4655763648 0.4667973648 0.4753423648 0.478763649 0.4826663649 0.4792483649 0.4851073649 0.4870613650 0.4948733650 0.4968263650 0.4982913650 0.5007323651 0.5061043651 0.5104983651 0.5122073651 0.5122073652 0.5124513652 0.5180663652 0.514163652 0.514163653 0.5104983653 0.5065923653 0.5092773653 0.5019533654 0.492923654 0.4848633654 0.4790043654 0.4748543655 0.4675293655 0.4746093655 0.4707033655 0.4768073656 0.4812013664 0.5202643664 0.5119633664 0.5124513664 0.5026863665 0.5007323665 0.4987793665 0.4956053665 0.4948733666 0.4924323666 0.4890143666 0.4868163666 0.4753423667 0.4714363667 0.4694823667 0.4675293667 0.4675293668 0.4694823668 0.4714363668 0.4694823668 0.4733893669 0.4753423669 0.4765623669 0.4792483669 0.4768073670 0.4809573670 0.4812013670 0.4807133670 0.4772953671 0.4746093671 0.4743653671 0.4785163671 0.4885253672 0.4963383672 0.5078123672 0.5158693672 0.5163573673 0.5234383684 0.4499513684 0.4519043684 0.4489753684 0.4509283685 0.4577643685 0.4621583685 0.4667973685 0.4689943686 0.4768073686 0.488773686 0.5046393686 0.5202643687 0.5251463687 0.5251463687 0.5251463687 0.5336913688 0.5314943688 0.5339363688 0.5334473688 0.5280763689 0.5253913689 0.5163573689 0.5114753689 0.5021973690 0.4946293690 0.4890143690 0.4826663690 0.478763691 0.4802253691 0.4987793691 0.5085453691 0.5134283692 0.5173343692 0.5214843692 0.520023692 0.5161133704 0.555423704 0.5334473704 0.5144043704 0.4948733705 0.4753423705 0.4665533705 0.4592293705 0.4548343706 0.4538573706 0.4494633706 0.4440923706 0.4436043707 0.4362793707 0.433353707 0.4355473707 0.447513708 0.461673708 0.4750983708 0.4831543708 0.4968263709 0.5065923709 0.5202643709 0.531253709 0.5297853709 0.5300293710 0.5329593710 0.5397953710 0.5456543710 0.5476073711 0.548343711 0.5375983711 0.5319823711 0.5351563712 0.5358893712 0.5358893712 0.5358893712 0.5332033720 0.4890143720 0.4790043720 0.4636233720 0.4479983721 0.4382323721 0.4296883721 0.433353721 0.4372563722 0.4499513722 0.4577643722 0.4689943722 0.4802253723 0.4812013723 0.4904793723 0.4948733723 0.489993724 0.4863283724 0.4851073724 0.4851073724 0.4772953725 0.4675293725 0.4636233725 0.461673725 0.4670413726 0.4707033726 0.4746093726 0.4831543726 0.4968263727 0.5007323727 0.5043953727 0.5058593727 0.5058593728 0.4987793728 0.4987793728 0.5024413728 0.504153729 0.4987793736 0.5358893736 0.5300293736 0.5180663736 0.5124513737 0.5046393737 0.4963383737 0.489993737 0.4802253738 0.4733893738 0.468753738 0.4636233738 0.4594733739 0.4672853739 0.4753423739 0.4772953739 0.4792483740 0.4812013740 0.4909673740 0.4960943740 0.4982913741 0.5002443741 0.4902343741 0.4870613741 0.4743653742 0.4748543742 0.4694823742 0.4655763742 0.4597173743 0.4479983743 0.4477543743 0.4392093743 0.4382323744 0.4440923744 0.4577643744 0.4738773744 0.5002443745 0.5217293753 0.2961433753 0.2768553753 0.2780763753 0.2800293754 0.2915043754 0.2990723754 0.3205573754 0.3457033755 0.3830573755 0.4272463755 0.4733893755 0.5161133756 0.5476073756 0.5754393756 0.5944823756 0.6042483757 0.6113283757 0.617923757 0.6215823757 0.6198733758 0.6193853758 0.6193853758 0.6135253758 0.6152343759 0.6093753759 0.617923759 0.6218263759 0.6198733760 0.6235353760 0.6218263760 0.6162113760 0.6101073761 0.5905763761 0.5847173761 0.5749513761 0.5671393762 0.5671393770 0.6198733770 0.649173770 0.6667483770 0.6823733771 0.6960453771 0.711673771 0.7094733771 0.6977543772 0.680423772 0.6687013772 0.6508793772 0.6354983773 0.6093753773 0.586673773 0.5651863773 0.5495613774 0.5417483774 0.5397953774 0.5515143774 0.5671393775 0.5786133775 0.5788573775 0.5729983775 0.5651863776 0.5534673776 0.5456543776 0.53543776 0.5280763777 0.5197753777 0.5139163777 0.5014653777 0.4919433778 0.4848633778 0.4785163778 0.4655763778 0.46463779 0.4626463790 0.4479983790 0.4636233790 0.461673790 0.4631353791 0.4655763791 0.4692383791 0.4733893791 0.4772953792 0.4821783792 0.4890143792 0.4968263792 0.5083013793 0.5202643793 0.5234383793 0.5161133793 0.5117193794 0.5004883794 0.4890143794 0.4648443794 0.4558113795 0.4362793795 0.4206543795 0.3999023795 0.3718263796 0.3518073796 0.333743796 0.3298343796 0.3305663797 0.3347173797 0.3503423797 0.3718263797 0.41043798 0.4458013798 0.4851073798 0.4987793798 0.5124513799 0.4968263810 0.6472173810 0.635013810 0.6345213810 0.6203613811 0.6062013811 0.6022953811 0.5964363811 0.5886233812 0.5705573812 0.5573733812 0.5434573812 0.5261233813 0.5104983813 0.4904793813 0.4694823813 0.4572753814 0.4438483814 0.4323733814 0.4226073814 0.4182133815 0.4167483815 0.4121093815 0.4128423815 0.4187013816 0.4206543816 0.4362793816 0.4499513816 0.4636233817 0.4885253817 0.5139163817 0.5280763817 0.5607913818 0.5769043818 0.5827643818 0.5883793818 0.5808113827 0.4343263827 0.433353827 0.4343263827 0.433353828 0.4343263828 0.4382323828 0.4394533828 0.4440923829 0.4636233829 0.4768073829 0.4870613829 0.510013830 0.5234383830 0.5300293830 0.52713830 0.5178223831 0.5104983831 0.4987793831 0.495853831 0.4851073832 0.4802253832 0.4880373832 0.4863283832 0.4770513833 0.461673833 0.4453123833 0.4284673833 0.4245613834 0.4323733834 0.4479983834 0.468753834 0.4909673835 0.5080573835 0.5144043835 0.5085453835 0.4851073836 0.461673836 0.4431153844 0.5729983844 0.5925293844 0.5983893844 0.5942383845 0.5781253845 0.5515143845 0.5222173845 0.5007323846 0.4851073846 0.4724123846 0.4772953846 0.4909673847 0.5124513847 0.5275883847 0.5300293847 0.5222173848 0.5136723848 0.5144043848 0.5085453848 0.5124513849 0.5222173849 0.5373543849 0.5300293849 0.5280763850 0.5190433850 0.5144043850 0.4946293850 0.4724123851 0.4548343851 0.4382323851 0.4343263851 0.4372563852 0.4438483852 0.4499513852 0.4558113852 0.4558113862 0.4614263862 0.4650883862 0.4558113862 0.4433593863 0.4392093863 0.4316413863 0.4321293863 0.4438483864 0.4597173864 0.4746093864 0.492923864 0.5104983865 0.5202643865 0.5214843865 0.5139163865 0.5063483866 0.4948733866 0.4868163866 0.4792483866 0.4748543867 0.4733893867 0.4792483867 0.4924323867 0.4987793868 0.492923868 0.4772953868 0.4572753868 0.4343263869 0.4167483869 0.3933113869 0.3737793869 0.3618163870 0.3476563870 0.3425293870 0.3474123870 0.3659673871 0.3894043883 0.4108893883 0.4069823883 0.3918463883 0.3842773884 0.3698733884 0.3554693884 0.3403323884 0.3269043885 0.3249513885 0.3269043885 0.3356933885 0.3476563886 0.3601073886 0.3718263886 0.3776863886 0.3933113887 0.3967293887 0.4023443887 0.4079593887 0.4187013888 0.4401863888 0.4804693888 0.5065923888 0.5378423889 0.5622563889 0.59793889 0.6176763889 0.6433113890 0.6667483890 0.6933593890 0.7094733890 0.7106933891 0.7058113891 0.7038573891 0.6901863891 0.6801763892 0.6667483903 0.4733893903 0.4748543903 0.4726563903 0.4731453904 0.4692383904 0.4648443904 0.4626463904 0.4626463905 0.4577643905 0.458743905 0.4628913905 0.4626463906 0.4648443906 0.4726563906 0.4785163906 0.4870613907 0.4946293907 0.5007323907 0.4963383907 0.4863283908 0.4631353908 0.4357913908 0.4067383908 0.386233909 0.3522953909 0.3530273909 0.3405763909 0.3327643910 0.3327643910 0.3425293910 0.3500983910 0.3581543911 0.353763911 0.3542483911 0.3562013911 0.3635253922 0.4689943922 0.4440923922 0.4206543922 0.3903813923 0.3601073923 0.3393553923 0.326663923 0.3261723924 0.3339843924 0.3464363924 0.3576663924 0.3737793925 0.4011233925 0.4343263925 0.4665533925 0.5019533926 0.5202643926 0.5339363926 0.5393073926 0.5476073927 0.5495613927 0.5434573927 0.5273443927 0.5065923928 0.4882813928 0.4812013928 0.4792483928 0.4890143929 0.5026863929 0.5234383929 0.5410163929 0.5456543930 0.5427253930 0.5437013930 0.5456543930 0.5534673931 0.5646973939 0.447513939 0.4675293939 0.4870613939 0.5026863940 0.5065923940 0.4943853940 0.4824223940 0.4733893941 0.47293941 0.4655763941 0.4636233941 0.4685063942 0.4943853942 0.5178223942 0.5505373942 0.5788573943 0.6054693943 0.6196293943 0.6213383943 0.6159673944 0.6003423944 0.5883793944 0.5729983944 0.5534673945 0.5417483945 0.5297853945 0.5261233945 0.520023946 0.5192873946 0.5192873946 0.5178223946 0.504153947 0.4948733947 0.4831543947 0.4763183947 0.4748543948 0.4743653955 0.555423955 0.5612793955 0.555423955 0.545413956 0.5307623956 0.4997563956 0.4694823956 0.4335943957 0.4011233957 0.3664553957 0.3264163957 0.2951663958 0.2761233958 0.2683113958 0.2604983958 0.2653813959 0.2656253959 0.2761233959 0.2929693959 0.3229983960 0.3576663960 0.3835453960 0.4177253960 0.4421393961 0.4731453961 0.5163573961 0.5632323961 0.6040043962 0.6335453962 0.6608893962 0.6745613962 0.6862793963 0.6872563963 0.6818853963 0.6784673963 0.6765143964 0.6765143971 0.385013971 0.3815923971 0.3747563971 0.3698733972 0.3693853972 0.3769533972 0.3884283972 0.4089363973 0.4392093973 0.4890143973 0.5378423973 0.5664063974 0.5886233974 0.6040043974 0.6118163974 0.6159673975 0.6113283975 0.5944823975 0.5761723975 0.5527343976 0.5285643976 0.5004883976 0.4753423976 0.4567873977 0.441653977 0.430423977 0.4177253977 0.4089363978 0.395023978 0.3815923978 0.364993978 0.3425293979 0.3222663979 0.3151863979 0.3269043979 0.3515623980 0.399173987 0.5664063987 0.5612793987 0.5612793987 0.5607913988 0.5651863988 0.572513988 0.5917973988 0.5925293989 0.6022953989 0.6081543989 0.603763989 0.6020513990 0.5959473990 0.582523990 0.566653990 0.5444343991 0.5261233991 0.5048833991 0.4848633991 0.4655763992 0.4460453992 0.430423992 0.4167483992 0.4108893993 0.3999023993 0.3952643993 0.3845213993 0.3769533994 0.3710943994 0.3601073994 0.3581543994 0.363773995 0.3757323995 0.4050293995 0.4296883995 0.4724123996 0.5134284004 0.4709474004 0.4633794004 0.4597174004 0.4631354005 0.4650884005 0.4714364005 0.4843754005 0.5065924006 0.5278324006 0.5437014006 0.5529794006 0.5495614007 0.5456544007 0.5366214007 0.5336914007 0.5358894008 0.531254008 0.5280764008 0.5295414008 0.5261234009 0.5222174009 0.521244009 0.5134284009 0.5024414009 0.4968264010 0.4851074010 0.4731454010 0.4685064010 0.4653324011 0.4689944011 0.482914011 0.5007324011 0.5156254012 0.5222174012 0.524174012 0.5180664012 0.5046394021 0.3569344021 0.3405764021 0.3217774021 0.3132324022 0.305424022 0.3032234022 0.3002934022 0.2878424023 0.274174023 0.2619634023 0.2624514023 0.2885744024 0.3454594024 0.4265144024 0.5114754024 0.5905764025 0.6560064025 0.6933594025 0.7170414025 0.7331544026 0.7443854026 0.7546394026 0.761234026 0.7683114027 0.770024027 0.7624514027 0.7502444027 0.7272954028 0.7065434028 0.6838384028 0.6765144028 0.6684574028 0.6643074029 0.6584474029 0.6447754029 0.6254884036 0.4733894036 0.5261234036 0.5690924036 0.5983894037 0.6018074037 0.5942384037 0.5690924037 0.5417484038 0.5183114038 0.5046394038 0.4909674038 0.4948734039 0.5124514039 0.5339364039 0.558354039 0.5886234040 0.6110844040 0.6252444040 0.6218264040 0.6159674041 0.5988774041 0.5859384041 0.569584041 0.5690924042 0.5612794042 0.5690924042 0.5749514042 0.5788574043 0.5788574043 0.5742194043 0.5610354043 0.5456544044 0.5373544044 0.5229494044 0.5144044044 0.492924044 0.4772954052 0.5180664052 0.5065924052 0.5024414052 0.4968264053 0.4968264053 0.5026864053 0.5119634053 0.5244144054 0.5319824054 0.5358894054 0.5319824054 0.5261234055 0.5197754055 0.5163574055 0.5085454055 0.5039064056 0.4968264056 0.4921884056 0.4904794056 0.4831544057 0.478764057 0.4694824057 0.4626464057 0.4538574058 0.4455574058 0.4431154058 0.4343264058 0.4301764059 0.4265144059 0.4206544059 0.4187014059 0.4108894060 0.4038094060 0.3952644060 0.3884284060 0.3835454061 0.386234069 0.7351074069 0.7331544069 0.7312014069 0.7253424070 0.7175294070 0.7192384070 0.7097174070 0.6999514071 0.6823734071 0.6601564071 0.6372074071 0.6159674072 0.6000984072 0.5920414072 0.5861824072 0.5905764073 0.5883794073 0.5905764073 0.6000984073 0.6135254074 0.6296394074 0.6406254074 0.6374514074 0.6267094075 0.6062014075 0.5822754075 0.5590824075 0.5339364075 0.5183114076 0.5065924076 0.5007324076 0.4909674076 0.4860844077 0.4750984077 0.4692384077 0.4670414085 0.1586914085 0.1955574085 0.2341314085 0.2797854086 0.343754086 0.4089364086 0.492924086 0.5632324087 0.6296394087 0.6738284087 0.7058114087 0.7233894088 0.7390144088 0.7409674088 0.7526864088 0.7597664089 0.781254089 0.7995614089 0.8073734089 0.8015144089 0.8105474090 0.8073734090 0.8034674090 0.7976074090 0.7839364091 0.7585454091 0.7409674091 0.7175294091 0.6823734092 0.6511234092 0.6081544092 0.5671394092 0.5329594093 0.5173344093 0.5161134093 0.5190434093 0.5258794105 0.4704594105 0.4511724105 0.4421394105 0.4338384106 0.4323734106 0.4284674106 0.4257814106 0.4147954107 0.4140624107 0.4187014107 0.4187014107 0.4460454108 0.4382324108 0.4494634108 0.4667974108 0.4792484109 0.4921884109 0.5058594109 0.524174109 0.5332034110 0.5280764110 0.5202644110 0.5063484110 0.5078124111 0.5007324111 0.5024414111 0.5007324111 0.5007324112 0.4909674112 0.4890144112 0.4924324112 0.4968264113 0.5026864113 0.5097664113 0.5085454113 0.5104984114 0.5039064125 0.7058114125 0.6843264125 0.6740724125 0.6569824126 0.6374514126 0.6191414126 0.6022954126 0.583744127 0.5690924127 0.5573734127 0.5446784127 0.5332034128 0.5280764128 0.5085454128 0.510014128 0.4978034129 0.4812014129 0.4665534129 0.4499514129 0.4318854130 0.4208984130 0.4069824130 0.4050294130 0.4011234130 0.4001464131 0.4028324131 0.4064944131 0.4042974131 0.4084474132 0.4050294132 0.4116214132 0.4206544132 0.4353034133 0.4460454133 0.4655764133 0.4792484133 0.4946294141 0.5456544141 0.5729984141 0.5886234141 0.6003424142 0.6018074142 0.5983894142 0.5939944142 0.5808114143 0.5729984143 0.5690924143 0.555424143 0.5485844144 0.5368654144 0.5300294144 0.5275884144 0.5175784145 0.5144044145 0.4968264145 0.4785164145 0.4597174146 0.4440924146 0.4343264146 0.4277344146 0.4086914147 0.3945314147 0.385014147 0.3725594147 0.363774148 0.3601074148 0.3562014148 0.3593754148 0.3574224149 0.3640144149 0.3784184149 0.4040534149 0.4343264156 0.5046394156 0.4851074156 0.4636234156 0.4399414157 0.4223634157 0.4030764157 0.3894044157 0.3789064158 0.3774414158 0.3864754158 0.4011234158 0.4216314159 0.4355474159 0.4421394159 0.4433594159 0.4421394160 0.4401864160 0.4450684160 0.4597174160 0.4809574161 0.4997564161 0.5209964161 0.5515144161 0.5683594162 0.5839844162 0.5729984162 0.566654162 0.5585944163 0.555424163 0.5456544163 0.5490724163 0.5456544164 0.5485844164 0.555424164 0.5703124164 0.5859384165 0.5964364173 0.5476074173 0.5280764173 0.5117194173 0.4948734174 0.4770514174 0.4636234174 0.4531254174 0.4470214175 0.4421394175 0.4396974175 0.4372564175 0.4440924176 0.4538574176 0.47294176 0.5026864176 0.5278324177 0.5456544177 0.5544434177 0.5593264177 0.5573734178 0.5593264178 0.5588384178 0.5566414178 0.5544434179 0.548344179 0.5397954179 0.5417484179 0.5297854180 0.5261234180 0.5214844180 0.5163574180 0.5122074181 0.5065924181 0.4982914181 0.4968264181 0.4909674182 0.4941414190 0.4907234190 0.4909674190 0.4926764190 0.492924191 0.4851074191 0.47294191 0.461674191 0.4499514192 0.4479984192 0.4460454192 0.4460454192 0.4440924193 0.4436044193 0.4372564193 0.433354193 0.4206544194 0.4011234194 0.3752444194 0.3435064194 0.3088384195 0.2829594195 0.2692874195 0.261234195 0.2648934196 0.2658694196 0.2634284196 0.2663574196 0.2702644197 0.3059084197 0.2995614197 0.3422854197 0.3933114197 0.447514198 0.5043954198 0.5632324198 0.6132814198 0.6586914209 0.4692384209 0.4675294209 0.4675294209 0.4694824210 0.4685064210 0.47294210 0.4792484210 0.4831544211 0.4968264211 0.5024414211 0.5085454211 0.5104984212 0.5119634212 0.5058594212 0.5007324212 0.5002444213 0.4968264213 0.4863284213 0.4848634213 0.4807134214 0.4792484214 0.4792484214 0.478764214 0.4792484215 0.4753424215 0.4694824215 0.4672854215 0.4665534216 0.4675294216 0.4675294216 0.47294216 0.4770514217 0.4772954217 0.4809574217 0.4802254217 0.4851074218 0.4919434229 0.5019534229 0.495854229 0.4948734229 0.4948734230 0.4943854230 0.4987794230 0.4968264230 0.5004884231 0.5024414231 0.5104984231 0.5117194231 0.5202644232 0.5217294232 0.5258794232 0.5300294232 0.5339364233 0.5239264233 0.521244233 0.5153814233 0.5124514234 0.5065924234 0.5080574234 0.5061044234 0.5026864235 0.5007324235 0.4978034235 0.5026864235 0.492924236 0.4914554236 0.4909674236 0.4909674236 0.4909674237 0.4934084237 0.4909674237 0.4909674237 0.4890144237 0.4909674245 0.5007324245 0.4987794245 0.4968264245 0.4968264246 0.4948734246 0.4936524246 0.4851074246 0.4860844247 0.4848634247 0.4868164247 0.4865724247 0.4890144248 0.4948734248 0.4948734248 0.492924248 0.4924324249 0.4914554249 0.492924249 0.4968264249 0.4926764250 0.4870614250 0.4919434250 0.489994250 0.4831544251 0.4812014251 0.4812014251 0.4826664251 0.4831544252 0.4812014252 0.4848634252 0.4890144252 0.4909674253 0.4968264253 0.4987794253 0.4987794253 0.5026864254 0.5026864261 0.5102544261 0.5104984261 0.5065924261 0.5007324262 0.5122074262 0.4965824262 0.4924324262 0.4907234263 0.4870614263 0.4868164263 0.4882814263 0.4880374264 0.4863284264 0.4885254264 0.4860844264 0.4909674265 0.4909674265 0.4870614265 0.4880374265 0.4902344266 0.488774266 0.4909674266 0.4919434266 0.4948734267 0.4982914267 0.5007324267 0.5046394267 0.5065924268 0.5104984268 0.5122074268 0.5183114268 0.5175784269 0.5183114269 0.5202644269 0.5134284269 0.5134284277 0.5085454277 0.5065924277 0.5063484277 0.5078124278 0.5019534278 0.4987794278 0.4924324278 0.4870614279 0.4848634279 0.4770514279 0.4731454279 0.468754280 0.4675294280 0.4694824280 0.4675294280 0.4707034281 0.4714364281 0.4711914281 0.47294281 0.4763184282 0.4772954282 0.4792484282 0.4846194282 0.4851074283 0.4909674283 0.4909674283 0.4943854283 0.4965824284 0.4963384284 0.4997564284 0.5065924284 0.5065924285 0.5080574285 0.5144044285 0.5124514285 0.5202644286 0.5251464294 0.5007324294 0.5026864294 0.5065924294 0.5065924295 0.5139164295 0.5085454295 0.5046394295 0.5024414296 0.4987794296 0.4948734296 0.4960944296 0.492924297 0.4909674297 0.492924297 0.4921884297 0.5024414298 0.5046394298 0.4851074298 0.5061044298 0.5102544299 0.5104984299 0.510014299 0.510014299 0.5136724300 0.5161134300 0.5180664300 0.5131844300 0.5161134301 0.5136724301 0.5078124301 0.5046394301 0.5043954302 0.4987794302 0.495854302 0.4870614302 0.4851074303 0.4792484314 0.4870614314 0.4851074314 0.4880374314 0.4870614315 0.4904794315 0.4919434315 0.4938964315 0.4919434316 0.495854316 0.495854316 0.4968264316 0.4948734317 0.492924317 0.4841314317 0.4792484317 0.4726564318 0.4670414318 0.4577644318 0.4655764318 0.461674319 0.4606934319 0.4653324319 0.4733894319 0.4733894320 0.4807134320 0.492924320 0.495854320 0.4987794321 0.4948734321 0.4921884321 0.4831544321 0.4890144322 0.4655764322 0.4572754322 0.4511724322 0.4538574323 0.4580084334 0.5007324334 0.4987794334 0.5004884334 0.4963384335 0.4943854335 0.4921884335 0.4890144335 0.4860844336 0.4851074336 0.4807134336 0.4831544336 0.4772954337 0.4807134337 0.4807134337 0.4843754337 0.4921884338 0.4812014338 0.482914338 0.4792484338 0.4885254339 0.4870614339 0.4863284339 0.4890144339 0.4909674340 0.4946294340 0.4960944340 0.4968264340 0.4980474341 0.5002444341 0.5026864341 0.5061044341 0.5083014342 0.5058594342 0.5026864342 0.5007324342 0.495854343 0.4924324350 0.4968264350 0.4943854350 0.4938964350 0.492924351 0.4946294351 0.4960944351 0.492924351 0.4926764352 0.4924324352 0.4943854352 0.5007324352 0.5026864353 0.4948734353 0.4968264353 0.4938964353 0.4948734354 0.4904794354 0.4909674354 0.4851074354 0.4890144355 0.4865724355 0.4860844355 0.4826664355 0.4870614356 0.4846194356 0.4851074356 0.4870614356 0.4851074357 0.492924357 0.489994357 0.492924357 0.4938964358 0.4902344358 0.4870614358 0.4831544358 0.4860844359 0.4870614366 0.4968264366 0.4978034366 0.492924366 0.4946294367 0.4934084367 0.4946294367 0.4965824367 0.4968264368 0.5019534368 0.4985354368 0.4987794368 0.4968264369 0.5019534369 0.5021974369 0.5007324369 0.495854370 0.5007324370 0.5017094370 0.5007324370 0.4987794371 0.5007324371 0.4987794371 0.4987794371 0.4982914372 0.4975594372 0.4985354372 0.4948734372 0.4938964373 0.4946294373 0.4968264373 0.492924373 0.4921884374 0.4943854374 0.4909674374 0.4851074374 0.4851074383 0.4870614383 0.4890144383 0.4870614383 0.4938964384 0.4909674384 0.4909674384 0.4965824384 0.4948734385 0.4963384385 0.4968264385 0.4982914385 0.4948734386 0.4980474386 0.5002444386 0.492924386 0.5007324387 0.5002444387 0.4968264387 0.4985354387 0.5046394388 0.4968264388 0.5019534388 0.4982914388 0.5007324389 0.4987794389 0.4968264389 0.4968264389 0.4997564390 0.4948734390 0.4948734390 0.492924390 0.492924391 0.4948734391 0.4921884391 0.492924391 0.4960944392 0.492924400 0.4968264400 0.5026864400 0.5063484400 0.5097664401 0.5085454401 0.5085454401 0.5026864401 0.5007324402 0.5026864402 0.4987794402 0.5007324402 0.5026864403 0.4985354403 0.4968264403 0.492924403 0.492924404 0.4921884404 0.492924404 0.4909674404 0.4868164405 0.4870614405 0.4821784405 0.4812014405 0.4772954406 0.482914406 0.4868164406 0.4851074406 0.4870614406 0.4909674407 0.492924407 0.4948734407 0.4965824407 0.5007324408 0.5080574408 0.5085454408 0.5065924408 0.5083014420 0.4885254420 0.4848634420 0.4846194420 0.4870614421 0.4841314421 0.4890144421 0.4831544421 0.4851074422 0.4902344422 0.4909674422 0.4909674422 0.4948734423 0.4948734423 0.4907234423 0.4968264423 0.4968264424 0.4968264424 0.4948734424 0.4960944424 0.4965824425 0.4968264425 0.4968264425 0.492924425 0.4924324426 0.4904794426 0.4943854426 0.4926764426 0.4868164427 0.4863284427 0.4890144427 0.4890144427 0.4948734428 0.492924428 0.492924428 0.4965824428 0.4968264429 0.5004884440 0.4870614440 0.4885254440 0.4870614440 0.4890144441 0.4890144441 0.4924324441 0.4890144441 0.488774442 0.4868164442 0.4870614442 0.4882814442 0.4890144443 0.4909674443 0.4907234443 0.492924443 0.492924444 0.4948734444 0.4968264444 0.492924444 0.4963384445 0.492924445 0.4772954445 0.4926764445 0.492924446 0.4924324446 0.4943854446 0.4909674446 0.4909674446 0.4907234447 0.4953614447 0.4924324447 0.4965824447 0.4936524448 0.5007324448 0.5026864448 0.5017094448 0.4909674456 0.492924456 0.4909674456 0.4924324456 0.4919434457 0.4909674457 0.4909674457 0.4870614457 0.4890144458 0.4890144458 0.4919434458 0.4907234458 0.4909674459 0.4870614459 0.4863284459 0.4870614459 0.4851074460 0.4870614460 0.4812014460 0.4846194460 0.4851074461 0.488774461 0.4846194461 0.4882814461 0.4890144462 0.4907234462 0.4870614462 0.4919434462 0.4890144463 0.4909674463 0.4909674463 0.495854463 0.4924324464 0.4936524464 0.4943854464 0.4948734464 0.4960944464 0.4978034472 0.5026864472 0.4985354472 0.5026864472 0.4985354473 0.5007324473 0.4968264473 0.4968264473 0.4948734474 0.492924474 0.492924474 0.4921884474 0.4890144475 0.492924475 0.4926764475 0.4885254475 0.488774476 0.4851074476 0.4870614476 0.4812014476 0.4812014477 0.4790044477 0.4772954477 0.4785164477 0.4748544478 0.4792484478 0.4772954478 0.4753424478 0.4809574479 0.4790044479 0.4924324479 0.4987794479 0.5026864480 0.5046394480 0.4987794480 0.4968264480 0.4870614481 0.4809574489 0.4948734489 0.4987794489 0.4909674489 0.4948734490 0.492924490 0.4890144490 0.4890144490 0.4870614491 0.4831544491 0.4948734491 0.4907234491 0.4963384492 0.4943854492 0.4948734492 0.4963384492 0.5007324493 0.4985354493 0.5007324493 0.5043954493 0.5065924494 0.5058594494 0.5065924494 0.5021974494 0.4980474495 0.4968264495 0.4948734495 0.4968264495 0.4968264496 0.5017094496 0.4985354496 0.4968264496 0.5007324497 0.4948734497 0.492924497 0.4919434497 0.4909674505 0.4965824505 0.4985354505 0.4965824505 0.4948734506 0.4919434506 0.4868164506 0.4924324506 0.4909674507 0.4907234507 0.492924507 0.4924324507 0.4890144508 0.4890144508 0.5021974508 0.4924324508 0.4948734509 0.4968264509 0.4978034509 0.5024414509 0.5017094510 0.4987794510 0.5046394510 0.5046394510 0.5019534511 0.5004884511 0.4987794511 0.4997564511 0.4987794512 0.492924512 0.4987794512 0.4963384512 0.4968264512 0.4997564513 0.4997564513 0.4987794513 0.5007324513 0.5026864525 0.4968264525 0.4948734525 0.4987794525 0.4960944526 0.4978034526 0.4968264526 0.4948734526 0.4909674527 0.4851074527 0.4824224527 0.4785164527 0.4824224528 0.4865724528 0.4909674528 0.492924528 0.4943854529 0.4978034529 0.4980474529 0.4968264529 0.4987794530 0.4968264530 0.4985354530 0.4968264530 0.4948734531 0.4982914531 0.5007324531 0.5002444531 0.5007324532 0.5024414532 0.5019534532 0.4987794532 0.5007324533 0.5004884533 0.5026864533 0.5026864533 0.5007324534 0.5012214545 0.4633794545 0.4611824545 0.4636234545 0.4709474546 0.4711914546 0.4792484546 0.4851074546 0.4946294547 0.5007324547 0.5046394547 0.5065924547 0.5085454548 0.5083014548 0.5085454548 0.504154548 0.5007324549 0.4968264549 0.4948734549 0.5004884549 0.4941414550 0.504154550 0.5043954550 0.5085454550 0.5261234551 0.5214844551 0.5300294551 0.5278324551 0.5319824552 0.5256354552 0.5234384552 0.5163574552 0.5083014553 0.5065924553 0.5065924553 0.5026864553 0.5026864561 0.4890144561 0.4924324561 0.492924561 0.4941414562 0.4968264562 0.4948734562 0.4963384562 0.4948734563 0.4948734563 0.4938964563 0.4909674563 0.4890144564 0.4919434564 0.4909674564 0.4926764564 0.4919434565 0.4909674565 0.4924324565 0.4948734565 0.492924566 0.4980474566 0.5017094566 0.4948734566 0.4968264567 0.4978034567 0.4968264567 0.4968264567 0.4982914568 0.4968264568 0.4968264568 0.4968264568 0.4948734569 0.4948734569 0.5056154569 0.495854569 0.5026864570 0.4980474577 0.4965824577 0.4943854577 0.4943854577 0.492924578 0.5007324578 0.492924578 0.4909674578 0.4924324579 0.492924579 0.4890144579 0.4880374579 0.4841314580 0.4890144580 0.4904794580 0.4987794580 0.4909674581 0.4880374581 0.4909674581 0.4934084581 0.4907234582 0.4870614582 0.4948734582 0.4909674582 0.492924583 0.4885254583 0.4907234583 0.4909674583 0.4909674584 0.492924584 0.4948734584 0.5007324584 0.492924584 0.4924324585 0.4919434585 0.4909674585 0.4951174585 0.4938964594 0.4982914594 0.5007324594 0.4987794594 0.4987794595 0.4987794595 0.5036624595 0.4968264595 0.4978034596 0.4968264596 0.4968264596 0.4987794596 0.4963384597 0.4919434597 0.4890144597 0.4909674597 0.492924598 0.489994598 0.4890144598 0.489994598 0.4890144599 0.4863284599 0.4851074599 0.492924599 0.4880374600 0.495854600 0.4851074600 0.4978034600 0.4985354601 0.4956054601 0.4965824601 0.4963384601 0.4890144602 0.4926764602 0.4870614602 0.492924602 0.488774602 0.4907234611 0.4946294611 0.5007324611 0.4968264611 0.5021974612 0.5046394612 0.5104984612 0.5061044612 0.504154613 0.4985354613 0.4946294613 0.4946294613 0.4885254614 0.4909674614 0.488774614 0.4890144614 0.4924324615 0.4919434615 0.4921884615 0.492924615 0.4907234616 0.492924616 0.4941414616 0.4948734616 0.4948734617 0.4909674617 0.489994617 0.4804694617 0.4880374618 0.4851074618 0.4851074618 0.4865724618 0.4812014619 0.4831544619 0.4812014619 0.4812014619 0.4870614620 0.4807134631 0.4770514631 0.4792484631 0.4851074631 0.4909674632 0.4978034632 0.5026864632 0.5026864632 0.5024414633 0.5026864633 0.5036624633 0.5002444633 0.4948734634 0.4968264634 0.4946294634 0.4946294634 0.4909674635 0.4890144635 0.4960944635 0.492924635 0.4948734636 0.4987794636 0.4980474636 0.4982914636 0.5007324637 0.4965824637 0.4948734637 0.4926764637 0.4909674638 0.4904794638 0.4870614638 0.4890144638 0.4851074639 0.4909674639 0.4904794639 0.4890144639 0.492924639 0.4946294651 0.4960944651 0.5007324651 0.4968264651 0.5007324652 0.4982914652 0.4980474652 0.4968264652 0.4987794653 0.4997564653 0.5004884653 0.5024414653 0.5026864654 0.5058594654 0.5039064654 0.5026864654 0.4987794655 0.4978034655 0.4948734655 0.492924655 0.4909674656 0.4909674656 0.4907234656 0.4868164656 0.4890144657 0.4885254657 0.4851074657 0.4790044657 0.4868164658 0.4907234658 0.4831544658 0.4851074658 0.4909674659 0.4870614659 0.4890144659 0.4870614659 0.4948734660 0.4851074667 0.4997564667 0.4987794667 0.54667 0.495854668 0.5024414668 0.4997564668 0.4968264668 0.4978034669 0.4980474669 0.4980474669 0.4987794669 0.4963384670 0.54670 0.5026864670 0.5007324670 0.5063484671 0.5046394671 0.504154671 0.5007324671 0.5019534672 0.5017094672 0.4978034672 0.4978034672 0.4978034673 0.4968264673 0.4987794673 0.4963384673 0.4980474674 0.4965824674 0.4968264674 0.4946294674 0.495854675 0.4948734675 0.4965824675 0.4946294675 0.4948734676 0.4941414683 0.4907234683 0.4870614683 0.4890144683 0.4870614684 0.4841314684 0.4890144684 0.4890144684 0.489994685 0.4870614685 0.489994685 0.4880374685 0.4904794686 0.4890144686 0.4870614686 0.4924324686 0.4946294687 0.4948734687 0.492924687 0.4995124687 0.5007324688 0.5046394688 0.5026864688 0.5026864688 0.5039064689 0.5026864689 0.5007324689 0.504154689 0.4987794689 0.4973144690 0.4982914690 0.5007324690 0.5026864690 0.5007324691 0.54691 0.4987794691 0.4968264691 0.4987794700 0.495854700 0.4919434700 0.4812014700 0.4865724701 0.4831544701 0.4772954701 0.4812014701 0.4807134702 0.4831544702 0.4880374702 0.4851074702 0.4865724703 0.4846194703 0.4792484703 0.4812014703 0.4860844704 0.4851074704 0.4863284704 0.4851074704 0.4882814705 0.4870614705 0.4909674705 0.495854705 0.495854705 0.4987794706 0.4948734706 0.4963384706 0.4968264706 0.5036624707 0.5012214707 0.5002444707 0.5007324707 0.4987794708 0.5026864708 0.4987794708 0.4948734708 0.4948734717 0.4919434717 0.4948734717 0.4909674717 0.4909674718 0.4938964718 0.4941414718 0.492924718 0.4909674719 0.4865724719 0.4890144719 0.4882814719 0.4924324720 0.4885254720 0.4882814720 0.4882814720 0.4870614721 0.4907234721 0.4885254721 0.4890144721 0.4919434722 0.4909674722 0.4946294722 0.4909674722 0.495854723 0.4936524723 0.492924723 0.4980474723 0.5007324724 0.4948734724 0.4904794724 0.4870614724 0.4882814725 0.4851074725 0.4870614725 0.4846194725 0.4851074726 0.4851074737 0.4909674737 0.492924737 0.4890144737 0.4909674738 0.4909674738 0.4870614738 0.4916994738 0.4877934739 0.4848634739 0.4924324739 0.4909674739 0.492924740 0.4919434740 0.4909674740 0.4897464740 0.4909674741 0.4909674741 0.4870614741 0.4885254741 0.4885254742 0.4912114742 0.4904794742 0.4907234742 0.492924743 0.4870614743 0.4890144743 0.4890144743 0.4907234744 0.4946294744 0.4904794744 0.5007324744 0.492924745 0.4926764745 0.4870614745 0.4885254745 0.4882814745 0.489994757 0.492924757 0.4948734757 0.4909674757 0.4921884758 0.4902344758 0.4890144758 0.488774758 0.4870614759 0.4851074759 0.4885254759 0.4868164759 0.4846194760 0.4851074760 0.4863284760 0.4846194760 0.4870614761 0.4868164761 0.4863284761 0.4882814761 0.4890144762 0.4890144762 0.489994762 0.4870614762 0.4919434763 0.4890144763 0.4885254763 0.4890144763 0.4870614764 0.4882814764 0.4909674764 0.4909674764 0.488774765 0.4909674765 0.4909674765 0.492924765 0.4904794766 0.489994773 0.5043954773 0.5063484773 0.5026864773 0.4987794774 0.4968264774 0.4968264774 0.4987794774 0.4982914775 0.4985354775 0.4997564775 0.4978034775 0.492924776 0.492924776 0.489994776 0.4870614776 0.4870614777 0.4851074777 0.4851074777 0.4851074777 0.4870614778 0.4907234778 0.4870614778 0.4860844778 0.4890144779 0.492924779 0.4943854779 0.4943854779 0.4968264780 0.4948734780 0.5039064780 0.4968264780 0.4948734781 0.4938964781 0.4960944781 0.4946294781 0.4948734782 0.4919434789 0.4909674789 0.492924789 0.492924789 0.4924324790 0.4980474790 0.4985354790 0.5007324790 0.5026864791 0.5078124791 0.5085454791 0.5119634791 0.5124514792 0.5136724792 0.5104984792 0.5124514792 0.5046394793 0.5043954793 0.5019534793 0.5002444793 0.4968264794 0.4968264794 0.5007324794 0.5024414794 0.504154795 0.4960944795 0.5007324795 0.4948734795 0.4948734796 0.4921884796 0.4909674796 0.4921884796 0.4890144797 0.4902344797 0.4870614797 0.4890144797 0.4904794806 0.4885254806 0.4968264806 0.4948734806 0.4960944807 0.4948734807 0.4978034807 0.4985354807 0.4987794808 0.4987794808 0.4968264808 0.5046394808 0.4987794809 0.5007324809 0.507084809 0.4948734809 0.4968264810 0.4973144810 0.5024414810 0.5078124810 0.5019534811 0.5002444811 0.5017094811 0.4980474811 0.4985354812 0.4987794812 0.5002444812 0.4987794812 0.5002444813 0.54813 0.4987794813 0.4997564813 0.4948734814 0.4965824814 0.4921884814 0.492924814 0.4921884815 0.4909674823 0.4946294823 0.4919434823 0.4924324823 0.4907234824 0.492924824 0.4909674824 0.4907234824 0.4890144825 0.4885254825 0.4865724825 0.4851074825 0.4831544826 0.4841314826 0.4890144826 0.4865724826 0.4831544827 0.4890144827 0.4938964827 0.4948734827 0.495854828 0.4968264828 0.4968264828 0.4968264828 0.5007324829 0.5046394829 0.4997564829 0.4948734829 0.492924830 0.4843754830 0.4919434830 0.5007324830 0.4978034831 0.5026864831 0.4987794831 0.4985354831 0.4968264832 0.4987794843 0.4890144843 0.4909674843 0.4890144843 0.4890144844 0.4909674844 0.4890144844 0.4943854844 0.4909674845 0.489994845 0.4938964845 0.4909674845 0.4948734846 0.4909674846 0.4978034846 0.4968264846 0.4987794847 0.4968264847 0.4948734847 0.4960944847 0.4987794848 0.4968264848 0.4982914848 0.4963384848 0.4968264849 0.4987794849 0.5007324849 0.4987794849 0.5007324850 0.4987794850 0.4980474850 0.4987794850 0.4978034851 0.4987794851 0.4985354851 0.5007324851 0.5007324852 0.4987794863 0.4948734863 0.4965824863 0.4902344863 0.4904794864 0.4880374864 0.4904794864 0.4924324864 0.4909674865 0.4948734865 0.495854865 0.4946294865 0.4997564866 0.4909674866 0.5036624866 0.5007324866 0.5026864867 0.5065924867 0.5114754867 0.5085454867 0.5061044868 0.5056154868 0.5056154868 0.5026864868 0.5036624869 0.5026864869 0.5017094869 0.5124514869 0.5046394870 0.5078124870 0.5058594870 0.5039064870 0.4987794871 0.4987794871 0.4968264871 0.4980474871 0.4963384872 0.4948734879 0.4909674879 0.4904794879 0.4902344879 0.4885254880 0.4880374880 0.4890144880 0.4890144880 0.4865724881 0.4860844881 0.4870614881 0.4890144881 0.4865724882 0.4870614882 0.4885254882 0.4870614882 0.492924883 0.4890144883 0.4924324883 0.4909674883 0.492924884 0.492924884 0.4948734884 0.4987794884 0.4938964885 0.4938964885 0.492924885 0.4938964885 0.4909674886 0.4948734886 0.4919434886 0.4885254886 0.4919434887 0.4885254887 0.492924887 0.4948734887 0.4968264895 0.4914554895 0.492924895 0.4938964895 0.492924896 0.4938964896 0.4919434896 0.4909674896 0.4943854897 0.4919434897 0.492924897 0.4880374897 0.4890144898 0.4890144898 0.4863284898 0.4890144898 0.4924324899 0.4907234899 0.492924899 0.4890144899 0.492924900 0.4909674900 0.4890144900 0.4943854900 0.4909674901 0.4907234901 0.4909674901 0.4924324901 0.4904794901 0.4926764902 0.4904794902 0.4890144902 0.4890144902 0.4909674903 0.4890144903 0.4904794903 0.488774903 0.4904794912 0.4921884912 0.4948734912 0.4924324912 0.492924913 0.4890144913 0.4851074913 0.4865724913 0.4853524914 0.4831544914 0.4831544914 0.4868164914 0.4826664915 0.4904794915 0.492924915 0.4982914915 0.4968264916 0.4987794916 0.5004884916 0.5002444916 0.4968264917 0.4987794917 0.5007324917 0.5007324917 0.5007324918 0.5039064918 0.4960944918 0.4946294918 0.4926764919 0.4941414919 0.4968264919 0.4946294919 0.4909674920 0.4909674920 0.4880374920 0.4868164920 0.4909674921 0.4936524929 0.4931644929 0.492924929 0.4987794929 0.4946294930 0.4941414930 0.4895024930 0.4890144930 0.4880374931 0.4890144931 0.4885254931 0.492924931 0.4890144932 0.4890144932 0.4919434932 0.4946294932 0.4948734933 0.4948734933 0.495854933 0.4982914933 0.4987794934 0.5021974934 0.5019534934 0.5026864934 0.5007324935 0.5009774935 0.5024414935 0.4985354935 0.4987794936 0.495854936 0.4948734936 0.4943854936 0.492924937 0.4902344937 0.4909674937 0.4907234937 0.4946294938 0.489994949 0.4965824949 0.4968264949 0.5024414949 0.4968264950 0.4968264950 0.4987794950 0.5004884950 0.5004884951 0.4987794951 0.5007324951 0.4987794951 0.5007324952 0.492924952 0.5024414952 0.5007324952 0.4997564953 0.4978034953 0.4968264953 0.4968264953 0.4960944954 0.4921884954 0.4904794954 0.4921884954 0.4948734955 0.4926764955 0.4941414955 0.4956054955 0.492924956 0.492924956 0.4902344956 0.4902344956 0.4919434957 0.4890144957 0.492924957 0.4919434957 0.4890144958 0.4890144968 0.4980474968 0.4965824968 0.4987794968 0.4985354969 0.4987794969 0.4987794969 0.495854969 0.4978034970 0.4987794970 0.4987794970 0.4919434970 0.4968264971 0.4948734971 0.4965824971 0.4943854971 0.4968264972 0.4938964972 0.4948734972 0.4968264972 0.4943854973 0.4948734973 0.4956054973 0.4963384973 0.4968264974 0.4978034974 0.492924974 0.4980474974 0.4968264975 0.4963384975 0.4987794975 0.4941414975 0.4960944976 0.492924976 0.489994976 0.4870614976 0.4846194977 0.4870614984 0.4904794984 0.4909674984 0.492924984 0.495854985 0.4968264985 0.5043954985 0.5085454985 0.5163574986 0.5153814986 0.5163574986 0.5183114986 0.5183114987 0.5124514987 0.5085454987 0.5124514987 0.4943854988 0.4963384988 0.492924988 0.4948734988 0.4946294989 0.4890144989 0.492924989 0.4885254989 0.4948734990 0.4909674990 0.492924990 0.492924990 0.4909674991 0.4943854991 0.4919434991 0.4909674991 0.4948734992 0.4982914992 0.4968264992 0.4968264992 0.4948734993 0.4982915000 0.4880375000 0.4851075000 0.4831545000 0.4904795001 0.4890145001 0.4904795001 0.4890145001 0.4921885002 0.4938965002 0.4890145002 0.4804695002 0.4902345003 0.4873055003 0.4890145003 0.4907235003 0.4902345003 0.488775004 0.4870615004 0.4870615004 0.492925004 0.4904795005 0.4902345005 0.492925005 0.4963385005 0.492925006 0.4843755006 0.4968265006 0.5002445006 0.5007325007 0.4978035007 0.5002445007 0.4987795007 0.5007325008 0.55008 0.5024415008 0.5026865008 0.5222175017 0.495855017 0.4965825017 0.4968265017 0.4982915018 0.4907235018 0.4890145018 0.4880375018 0.4907235019 0.4860845019 0.4909675019 0.4902345019 0.4909675020 0.4965825020 0.4946295020 0.4987795020 0.4980475021 0.4965825021 0.4968265021 0.4948735021 0.4946295022 0.4948735022 0.4948735022 0.4948735022 0.4938965023 0.4890145023 0.4890145023 0.4904795023 0.4941415023 0.492925024 0.4919435024 0.4968265024 0.4960945024 0.4948735025 0.4948735025 0.4909675025 0.492925025 0.4924325034 0.4948735034 0.492925034 0.4890145034 0.4919435035 0.4924325035 0.4919435035 0.4924325035 0.4904795036 0.4909675036 0.492925036 0.4909675036 0.492925037 0.4919435037 0.4904795037 0.4890145037 0.4885255038 0.4909675038 0.4865725038 0.4870615038 0.4885255039 0.4851075039 0.4870615039 0.4870615039 0.4926765039 0.4860845040 0.4890145040 0.4909675040 0.4890145040 0.4938965041 0.4948735041 0.492925041 0.492925041 0.4968265042 0.4946295042 0.4890145042 0.4870615042 0.4841315054 0.495855054 0.4985355054 0.4968265054 0.4968265055 0.4946295055 0.4948735055 0.4943855055 0.5004885056 0.4924325056 0.4938965056 0.492925056 0.4919435057 0.4890145057 0.4909675057 0.4907235057 0.488775058 0.4924325058 0.4882815058 0.4948735058 0.488775059 0.4880375059 0.4870615059 0.4907235059 0.4926765060 0.4890145060 0.4909675060 0.4870615060 0.4851075061 0.4882815061 0.4846195061 0.4851075061 0.4846195061 0.4863285062 0.4841315062 0.4909675062 0.4902345062 0.4904795074 0.4909675074 0.4948735074 0.492925074 0.4943855075 0.4946295075 0.4909675075 0.4902345075 0.489995076 0.4948735076 0.4885255076 0.4904795076 0.4885255077 0.4865725077 0.4885255077 0.4863285077 0.4846195078 0.4831545078 0.4851075078 0.4851075078 0.488775079 0.488775079 0.4907235079 0.4938965079 0.4926765080 0.4909675080 0.4946295080 0.4870615080 0.4792485081 0.4909675081 0.4870615081 0.4890145081 0.4885255082 0.4877935082 0.4890145082 0.488775082 0.4909675082 0.4909675090 0.5063485090 0.5046395090 0.5046395090 0.4987795091 0.5039065091 0.4987795091 0.5007325091 0.5002445092 0.4985355092 0.495855092 0.4985355092 0.4987795093 0.4948735093 0.4968265093 0.4978035093 0.492925094 0.4968265094 0.492925094 0.4943855094 0.4948735095 0.4946295095 0.4941415095 0.4909675095 0.4909675096 0.489995096 0.4885255096 0.4919435096 0.4851075097 0.4746095097 0.4807135097 0.4870615097 0.4851075098 0.4812015098 0.4809575098 0.4831545098 0.4851075105 0.502935105 0.5007325105 0.5007325105 0.507085106 0.5026865106 0.5007325106 0.5026865106 0.5065925107 0.5065925107 0.5046395107 0.5065925107 0.5065925108 0.5097665108 0.5007325108 0.5046395108 0.5065925108 0.5117195109 0.5058595109 0.5078125109 0.5051275110 0.5026865110 0.5039065110 0.5017095110 0.5004885110 0.4987795111 0.4941415111 0.4968265111 0.4941415111 0.492925112 0.4870615112 0.4831545112 0.4831545112 0.4831545113 0.4792485113 0.482915113 0.478765113 0.4785165122 0.4924325122 0.4909675122 0.4909675122 0.4882815123 0.4909675123 0.4882815123 0.4948735123 0.4890145124 0.4885255124 0.4870615124 0.4909675124 0.4924325125 0.4870615125 0.4948735125 0.4948735125 0.4968265126 0.4946295126 0.4985355126 0.4968265126 0.5026865127 0.4980475127 0.4985355127 0.5007325127 0.4985355128 0.55128 0.4987795128 0.4987795128 0.5024415128 0.5002445129 0.4982915129 0.4987795129 0.4987795129 0.4985355130 0.4997565130 0.4978035130 0.55130 0.4997565131 0.4968265139 0.4851075139 0.4890145139 0.4870615139 0.4885255140 0.4792485140 0.4863285140 0.4882815140 0.4870615141 0.4851075141 0.4868165141 0.4870615141 0.4890145142 0.4885255142 0.4860845142 0.4890145142 0.4882815143 0.4890145143 0.4909675143 0.4924325143 0.492925144 0.4841315144 0.4926765144 0.4943855144 0.492925145 0.4943855145 0.4956055145 0.4948735145 0.4995125146 0.4987795146 0.4987795146 0.4978035146 0.4987795147 0.504155147 0.4980475147 0.4968265147 0.4980475158 0.489995158 0.4909675158 0.4880375158 0.489995159 0.4890145159 0.4890145159 0.4870615159 0.4870615160 0.4860845160 0.4851075160 0.4902345160 0.4865725161 0.4870615161 0.4890145161 0.4885255161 0.4870615162 0.489995162 0.4880375162 0.4870615162 0.4863285162 0.4948735163 0.4841315163 0.4870615163 0.4890145163 0.489995164 0.4890145164 0.4909675164 0.4909675164 0.4909675165 0.4904795165 0.492925165 0.4948735165 0.4924325166 0.492925166 0.4938965166 0.4943855166 0.4963385178 0.492925178 0.4880375178 0.4851075178 0.4824225179 0.4846195179 0.4768075179 0.4733895179 0.4785165180 0.4772955180 0.4802255180 0.4851075180 0.4851075181 0.4870615181 0.4851075181 0.4870615181 0.4946295182 0.492925182 0.4926765182 0.4968265182 0.492925183 0.492925183 0.4948735183 0.4960945183 0.4909675184 0.4921885184 0.4941415184 0.4948735184 0.4960945185 0.4968265185 0.4968265185 0.4968265185 0.5017095186 0.4987795186 0.4968265186 0.4985355186 0.4985355187 0.4948735194 0.4938965194 0.4946295194 0.4968265194 0.4982915195 0.4946295195 0.4909675195 0.4904795195 0.489995196 0.4909675196 0.488775196 0.4890145196 0.4870615197 0.488775197 0.4909675197 0.4885255197 0.4902345198 0.5007325198 0.4885255198 0.4904795198 0.4885255199 0.4924325199 0.4890145199 0.4860845199 0.4877935200 0.4863285200 0.4985355200 0.4885255200 0.4890145201 0.4863285201 0.4921885201 0.488775201 0.4902345202 0.4882815202 0.4909675202 0.4890145202 0.4890145203 0.4882815210 0.4960945210 0.5046395210 0.4960945210 0.5004885211 0.4987795211 0.4982915211 0.5007325211 0.4997565212 0.5007325212 0.5004885212 0.4980475212 0.5007325213 0.4968265213 0.4946295213 0.4948735213 0.4948735214 0.4948735214 0.4941415214 0.4909675214 0.4997565215 0.4909675215 0.4907235215 0.4921885215 0.4904795216 0.4943855216 0.4897465216 0.4909675216 0.4909675217 0.4882815217 0.4909675217 0.4882815217 0.4851075218 0.4851075218 0.4919435218 0.4870615218 0.488775219 0.4848635227 0.4968265227 0.4968265227 0.4968265227 0.4968265228 0.4997565228 0.4987795228 0.4987795228 0.5002445229 0.4987795229 0.5026865229 0.5043955229 0.5007325230 0.5026865230 0.5012215230 0.4982915230 0.5004885231 0.4987795231 0.5021975231 0.4987795231 0.4997565232 0.5024415232 0.4987795232 0.4980475232 0.4963385233 0.4985355233 0.4997565233 0.4948735233 0.4965825234 0.4968265234 0.4963385234 0.4868165234 0.4968265235 0.4948735235 0.4943855235 0.4909675235 0.4904795243 0.4870615243 0.4831545243 0.4792485243 0.4812015244 0.4812015244 0.4841315244 0.4846195244 0.4870615245 0.4948735245 0.4978035245 0.4965825245 0.4987795246 0.4997565246 0.5004885246 0.5046395246 0.5083015247 0.5046395247 0.5065925247 0.5024415247 0.5024415248 0.5026865248 0.5007325248 0.4968265248 0.4968265249 0.5021975249 0.4968265249 0.4968265249 0.5007325250 0.4960945250 0.5021975250 0.5065925250 0.5061045250 0.5083015251 0.5065925251 0.5056155251 0.5058595251 0.5046395263 0.489995263 0.4890145263 0.4897465263 0.4909675264 0.4909675264 0.4909675264 0.4877935264 0.4948735265 0.492925265 0.495855265 0.4941415265 0.4963385266 0.4968265266 0.4968265266 0.4978035266 0.5004885267 0.5007325267 0.4995125267 0.5007325267 0.5036625268 0.5007325268 0.4987795268 0.4978035268 0.55269 0.4987795269 0.4982915269 0.5007325269 0.5065925270 0.5007325270 0.5046395270 0.5007325270 0.5004885270 0.5002445271 0.4997565271 0.4987795271 0.5004885271 0.4987795283 0.4882815283 0.4904795283 0.4890145283 0.492925284 0.4924325284 0.4941415284 0.4948735284 0.4968265285 0.4968265285 0.4982915285 0.4968265285 0.4963385286 0.4980475286 0.5002445286 0.5007325286 0.5039065287 0.4968265287 0.4909675287 0.4948735287 0.4938965288 0.4924325288 0.4909675288 0.4870615288 0.4909675289 0.4904795289 0.492925289 0.492925289 0.4926765290 0.4948735290 0.4948735290 0.4948735290 0.4968265291 0.4890145291 0.4987795291 0.5007325291 0.4968265292 0.4987795299 0.4902345299 0.4902345299 0.4890145299 0.4826665300 0.4890145300 0.4909675300 0.4890145300 0.4870615301 0.488775301 0.492925301 0.489995301 0.4882815302 0.4907235302 0.489995302 0.4909675302 0.4890145303 0.488775303 0.4902345303 0.4921885303 0.4941415304 0.4909675304 0.4938965304 0.4948735304 0.4946295305 0.4948735305 0.4965825305 0.492925305 0.4987795306 0.4909675306 0.4948735306 0.4968265306 0.4968265307 0.4968265307 0.4960945307 0.4982915307 0.4968265308 0.4926765315 0.492925315 0.4938965315 0.4919435315 0.4909675316 0.4904795316 0.4909675316 0.4997565316 0.4851075317 0.4868165317 0.4890145317 0.4885255317 0.4890145318 0.4904795318 0.4890145318 0.4890145318 0.4921885319 0.4885255319 0.4904795319 0.4907235319 0.4882815320 0.4909675320 0.4907235320 0.4902345320 0.4890145321 0.492925321 0.489995321 0.4907235321 0.4902345322 0.4909675322 0.4919435322 0.4890145322 0.4890145323 0.4909675323 0.4980475323 0.4907235323 0.492925324 0.4941415332 0.4980475332 0.4921885332 0.4968265332 0.4948735333 0.495855333 0.4968265333 0.492925333 0.4965825334 0.4948735334 0.4948735334 0.4948735334 0.4968265335 0.4946295335 0.4948735335 0.4926765335 0.4924325336 0.4926765336 0.4892585336 0.4890145336 0.492925337 0.4904795337 0.4924325337 0.4909675337 0.4926765338 0.4941415338 0.4909675338 0.492925338 0.5007325339 0.4914555339 0.4909675339 0.4909675339 0.4831545340 0.4851075340 0.488775340 0.489995340 0.4885255341 0.4904795349 0.4987795349 0.4997565349 0.4968265349 0.5021975350 0.5021975350 0.4987795350 0.5007325350 0.5004885351 0.4987795351 0.4987795351 0.4997565351 0.4987795352 0.5026865352 0.5002445352 0.4980475352 0.5002445353 0.4978035353 0.4997565353 0.4963385353 0.4987795354 0.4968265354 0.4968265354 0.492925354 0.4909675355 0.492925355 0.492925355 0.4897465355 0.4890145356 0.495855356 0.4921885356 0.4890145356 0.4902345357 0.4909675357 0.4870615357 0.4870615357 0.4885255358 0.4897465369 0.5024415369 0.4997565369 0.5007325369 0.5007325370 0.5039065370 0.4987795370 0.5026865370 0.5026865371 0.5019535371 0.5026865371 0.4968265371 0.5017095372 0.5007325372 0.5007325372 0.4987795372 0.5007325373 0.4982915373 0.4963385373 0.4890145373 0.4982915374 0.4968265374 0.4948735374 0.4968265374 0.4948735375 0.492925375 0.4948735375 0.4948735375 0.4943855376 0.4948735376 0.4919435376 0.4948735376 0.492925377 0.4948735377 0.4965825377 0.5007325377 0.4948735388 0.492925388 0.4948735388 0.4948735388 0.4963385389 0.4987795389 0.5046395389 0.504155389 0.5021975390 0.504155390 0.5026865390 0.5024415390 0.5046395391 0.4982915391 0.4968265391 0.4980475391 0.4987795392 0.5002445392 0.492925392 0.4948735392 0.4948735393 0.4924325393 0.4953615393 0.4924325393 0.4921885394 0.4909675394 0.492925394 0.492925394 0.492925395 0.4909675395 0.4943855395 0.4943855395 0.4943855396 0.4943855396 0.4909675396 0.492925396 0.4909675397 0.4968265404 0.4912115404 0.4890145404 0.4946295404 0.4907235405 0.4943855405 0.4926765405 0.4926765405 0.4919435406 0.4948735406 0.4943855406 0.4948735406 0.4938965407 0.492925407 0.4968265407 0.4943855407 0.4948735408 0.4980475408 0.492925408 0.495855408 0.4948735408 0.4909675409 0.5004885409 0.4941415409 0.4960945409 0.4948735410 0.495855410 0.4997565410 0.4960945410 0.4987795411 0.5036625411 0.4987795411 0.5004885411 0.5039065412 0.5026865412 0.5007325412 0.4987795412 0.4987795420 0.4812015420 0.4802255420 0.4831545420 0.4812015421 0.4792485421 0.4812015421 0.4792485421 0.4812015422 0.4846195422 0.4792485422 0.4812015422 0.4782715423 0.4812015423 0.4785165423 0.4841315423 0.4870615424 0.4890145424 0.4909675424 0.4902345424 0.4890145425 0.4968265425 0.4948735425 0.4948735425 0.4987795426 0.5004885426 0.4987795426 0.5007325426 0.4987795427 0.4987795427 0.4948735427 0.4968265427 0.4948735428 0.4968265428 0.4987795428 0.4987795428 0.5021975429 0.5124515437 0.4941415437 0.4909675437 0.492925437 0.4831545438 0.4870615438 0.4907235438 0.4907235438 0.4907235439 0.4909675439 0.4909675439 0.4909675439 0.4885255440 0.4919435440 0.4890145440 0.4890145440 0.4865725441 0.488775441 0.4868165441 0.4831545441 0.4865725442 0.4863285442 0.485845442 0.4851075442 0.4851075443 0.4870615443 0.4831545443 0.4851075443 0.4831545444 0.4812015444 0.4792485444 0.4792485444 0.478765445 0.4714365445 0.4733895445 0.4726565445 0.4675295446 0.471685454 0.5378425454 0.5358895454 0.5317385454 0.5373545455 0.5319825455 0.5319825455 0.5292975455 0.5202645456 0.5222175456 0.5163575456 0.5124515456 0.5156255457 0.5124515457 0.5104985457 0.5117195457 0.5104985458 0.5065925458 0.504155458 0.4987795458 0.5021975459 0.4941415459 0.492925459 0.4909675459 0.492925460 0.4909675460 0.4909675460 0.5007325460 0.4851075461 0.488775461 0.4870615461 0.4890145461 0.488775462 0.4890145462 0.4909675462 0.4926765462 0.492925463 0.5007325474 0.4831545474 0.4790045474 0.4826665474 0.4792485475 0.4831545475 0.4821785475 0.4812015475 0.4831545476 0.4826665476 0.4807135476 0.4831545476 0.4831545477 0.4819345477 0.4807135477 0.4812015477 0.4831545478 0.4812015478 0.4821785478 0.4831545478 0.4848635479 0.4841315479 0.4860845479 0.4846195479 0.4851075480 0.4882815480 0.4938965480 0.4948735480 0.4995125481 0.4987795481 0.4968265481 0.4985355481 0.4968265482 0.4965825482 0.4968265482 0.4890145482 0.4907235494 0.4987795494 0.5007325494 0.5026865494 0.4987795495 0.5021975495 0.5026865495 0.4948735495 0.4968265496 0.4943855496 0.4936525496 0.4870615496 0.4926765497 0.4890145497 0.4909675497 0.4851075497 0.4909675498 0.4880375498 0.4880375498 0.4851075498 0.488775499 0.482915499 0.4870615499 0.4851075499 0.4860845500 0.4807135500 0.4821785500 0.4831545500 0.4824225500 0.4831545501 0.4841315501 0.4851075501 0.4848635501 0.4863285502 0.4868165502 0.4868165502 0.4870615502 0.4880375510 0.4589845510 0.461675510 0.4631355510 0.46465511 0.4689945511 0.4733895511 0.4733895511 0.4807135512 0.4792485512 0.4846195512 0.4924325512 0.5004885513 0.5061045513 0.5163575513 0.5280765513 0.5356455514 0.5415045514 0.5437015514 0.5417485514 0.5397955515 0.5339365515 0.5278325515 0.5246585515 0.5202645516 0.5175785516 0.5104985516 0.504155516 0.5026865517 0.5043955517 0.5039065517 0.5061045517 0.5119635518 0.5139165518 0.5119635518 0.5114755518 0.5095215519 0.5065925525 0.4946295525 0.4982915525 0.5007325525 0.5085455526 0.5139165526 0.5183115526 0.5178225526 0.5222175527 0.5183115527 0.5222175527 0.5197755527 0.5124515528 0.514165528 0.5080575528 0.5061045528 0.5046395529 0.4992685529 0.4987795529 0.4948735529 0.489995530 0.488775530 0.4904795530 0.4907235530 0.4846195531 0.482915531 0.4826665531 0.4821785531 0.4941415532 0.4812015532 0.4812015532 0.4809575532 0.4812015533 0.4812015533 0.4824225533 0.4831545533 0.4904795534 0.4943855542 0.5004885542 0.4948735542 0.4948735542 0.4890145543 0.4890145543 0.4909675543 0.4909675543 0.4909675544 0.4921885544 0.492925544 0.4907235544 0.495855545 0.492925545 0.4968265545 0.4909675545 0.4948735546 0.495855546 0.4978035546 0.4941415546 0.4965825547 0.492925547 0.4909675547 0.4909675547 0.492925548 0.4890145548 0.4897465548 0.4926765548 0.4987795549 0.4921885549 0.4938965549 0.4987795549 0.4987795550 0.4987795550 0.55550 0.5007325550 0.5019535551 0.5026865559 0.4841315559 0.4851075559 0.4860845559 0.4868165560 0.4836435560 0.4812015560 0.4782715560 0.4772955561 0.4733895561 0.4714365561 0.4694825561 0.4753425562 0.4760745562 0.4785165562 0.4772955562 0.4753425563 0.4714365563 0.4694825563 0.4709475563 0.4675295564 0.4655765564 0.4670415564 0.4628915564 0.4655765565 0.4707035565 0.4812015565 0.4802255565 0.4831545566 0.4870615566 0.492925566 0.492925566 0.4948735567 0.4943855567 0.4904795567 0.4831545567 0.4770515568 0.4702155579 0.5090335579 0.4978035579 0.5065925579 0.4997565580 0.5039065580 0.5026865580 0.4965825580 0.4987795581 0.4987795581 0.4985355581 0.4948735581 0.489995582 0.4948735582 0.4968265582 0.4985355582 0.4968265583 0.4968265583 0.4946295583 0.4968265583 0.4987795584 0.4948735584 0.4963385584 0.4960945584 0.4909675585 0.4909675585 0.4885255585 0.4831545585 0.4851075586 0.4841315586 0.4890145586 0.4885255586 0.4882815587 0.4890145587 0.4948735587 0.4946295587 0.4968265588 0.4985355599 0.5568855599 0.545415599 0.5319825599 0.5219735600 0.517095600 0.5175785600 0.5144045600 0.511235601 0.5119635601 0.5124515601 0.5104985601 0.510015602 0.5104985602 0.5046395602 0.5024415602 0.4982915603 0.495855603 0.4948735603 0.4909675603 0.4870615604 0.4826665604 0.4772955604 0.4726565604 0.4694825605 0.4636235605 0.4714365605 0.4675295605 0.4655765606 0.4636235606 0.4655765606 0.4692385606 0.4733895607 0.4792485607 0.4851075607 0.4904795607 0.4965825614 0.4975595614 0.4968265614 0.5026865614 0.5058595615 0.5085455615 0.5136725615 0.5163575615 0.5180665616 0.5104985616 0.510015616 0.5026865616 0.4924325617 0.4885255617 0.4809575617 0.4807135617 0.482915618 0.4792485618 0.4812015618 0.4851075618 0.4868165619 0.4870615619 0.4870615619 0.4826665619 0.4846195620 0.4792485620 0.4765625620 0.4694825620 0.4670415621 0.4670415621 0.4650885621 0.4694825621 0.4694825622 0.4714365622 0.4675295622 0.4689945622 0.4675295623 0.4689945630 0.4841315630 0.4909675630 0.4968265630 0.5065925631 0.5144045631 0.5202645631 0.5183115631 0.514165632 0.5097665632 0.5046395632 0.5002445632 0.4987795633 0.492925633 0.4975595633 0.495855633 0.5007325634 0.5056155634 0.5102545634 0.5097665634 0.5097665635 0.5144045635 0.5124515635 0.5180665635 0.5156255636 0.5202645636 0.5146485636 0.5078125636 0.5026865637 0.4948735637 0.4909675637 0.4772955637 0.4692385638 0.4636235638 0.4536135638 0.4538575638 0.461675639 0.4636235647 0.5144045647 0.5097665647 0.5026865647 0.5007325648 0.5039065648 0.4987795648 0.5021975648 0.5007325649 0.5007325649 0.5043955649 0.5043955649 0.510015650 0.5104985650 0.5114755650 0.5136725650 0.5183115651 0.5202645651 0.5234385651 0.524175651 0.5231935652 0.5197755652 0.5144045652 0.5085455652 0.5080575653 0.5036625653 0.55653 0.4938965653 0.4926765654 0.4904795654 0.4826665654 0.4792485654 0.4733895655 0.4689945655 0.4633795655 0.461675655 0.458745656 0.458745664 0.5397955664 0.5410165664 0.5446785664 0.5515145665 0.5493165665 0.5468755665 0.5397955665 0.5339365666 0.5358895666 0.5358895666 0.5397955666 0.5390625667 0.5473635667 0.5505375667 0.5527345667 0.5544435668 0.555425668 0.5437015668 0.5397955668 0.5319825669 0.5275885669 0.5253915669 0.5183115669 0.5195315670 0.5180665670 0.5197755670 0.5183115670 0.5197755671 0.5222175671 0.5222175671 0.5183115671 0.5144045672 0.510015672 0.5058595672 0.5095215672 0.5063485673 0.5043955684 0.5019535684 0.4948735684 0.5009775684 0.5026865685 0.5039065685 0.5085455685 0.5065925685 0.5036625686 0.4946295686 0.4890145686 0.4772955686 0.4748545687 0.4714365687 0.4597175687 0.4509285687 0.4343265688 0.4240725688 0.4255375688 0.4257815688 0.4260255689 0.427495689 0.4284675689 0.4284675689 0.4284675690 0.4301765690 0.4323735690 0.4372565690 0.4438485691 0.4499515691 0.4558115691 0.4558115691 0.4558115692 0.4597175692 0.4636235692 0.4558115692 0.4509285692 0.4396975704 0.4882815704 0.5019535704 0.5222175704 0.5397955705 0.5651865705 0.5839845705 0.58965705 0.593755706 0.5886235706 0.5722665706 0.5490725706 0.5300295707 0.5178225707 0.5007325707 0.492925707 0.4741215708 0.4655765708 0.4470215708 0.4321295708 0.416265709 0.4096685709 0.40215709 0.4047855709 0.4121095710 0.4167485710 0.4128425710 0.4089365710 0.4079595711 0.4089365711 0.41045711 0.4179695711 0.4245615711 0.4401865712 0.4597175712 0.4890145712 0.5104985712 0.5339365720 0.3815925720 0.3715825720 0.3688965720 0.3698735721 0.367925721 0.3718265721 0.3808595721 0.3930665722 0.4108895722 0.430425722 0.4460455722 0.4636235723 0.4863285723 0.4921885723 0.5202645723 0.5368655724 0.5534675724 0.5651865724 0.5729985724 0.5742195725 0.5649415725 0.5568855725 0.5397955725 0.5275885726 0.5253915726 0.5180665726 0.5253915726 0.5192875727 0.5231935727 0.5261235727 0.5222175727 0.5163575728 0.5119635728 0.5117195728 0.4824225728 0.5046395729 0.5065925736 0.4440925736 0.4479985736 0.4577645736 0.4636235737 0.4743655737 0.4614265737 0.4611825737 0.4555665738 0.4479985738 0.4489755738 0.4340825738 0.4316415739 0.4362795739 0.4372565739 0.4421395739 0.4538575740 0.4636235740 0.4731455740 0.4724125740 0.4692385741 0.4597175741 0.451665741 0.4338385741 0.4238285742 0.4226075742 0.4238285742 0.4372565742 0.4470215743 0.4631355743 0.4841315743 0.5078125743 0.5319825744 0.5515145744 0.5573735744 0.5622565744 0.5590825753 0.4982915753 0.4941415753 0.4941415753 0.4982915754 0.5019535754 0.5095215754 0.5134285754 0.5234385755 0.5231935755 0.5253915755 0.5202645755 0.520025756 0.5197755756 0.5163575756 0.5119635756 0.5007325757 0.4948735757 0.4831545757 0.4772955757 0.4743655758 0.4648445758 0.4694825758 0.4577645758 0.4614265759 0.4597175759 0.4675295759 0.4675295759 0.4621585760 0.4628915760 0.4489755760 0.4440925760 0.4382325761 0.4399415761 0.4382325761 0.4460455761 0.4472665762 0.4611825770 0.5534675770 0.5546885770 0.5590825770 0.5534675771 0.5593265771 0.5612795771 0.5710455771 0.5788575772 0.5817875772 0.5827645772 0.576665772 0.5727545773 0.5622565773 0.5563965773 0.5476075773 0.53545774 0.5295415774 0.5222175774 0.5156255774 0.5026865775 0.5002445775 0.4909675775 0.4843755775 0.4772955776 0.4753425776 0.4733895776 0.4753425776 0.4665535777 0.461675777 0.4567875777 0.4558115777 0.4519045778 0.4514165778 0.4499515778 0.4479985778 0.4479985779 0.4440925790 0.6081545790 0.6608895790 0.7072755790 0.7351075791 0.7565925791 0.7636725791 0.7722175791 0.7851565792 0.7949225792 0.7956545792 0.7917485792 0.7819825793 0.767095793 0.7468265793 0.7128915793 0.6862795794 0.6608895794 0.646245794 0.635015794 0.6335455795 0.6276865795 0.6218265795 0.6140145795 0.6115725796 0.5944825796 0.5808115796 0.5678715796 0.5527345797 0.5417485797 0.5585945797 0.5378425797 0.5192875798 0.5085455798 0.4968265798 0.4851075798 0.4851075799 0.4826665810 0.4741215810 0.4631355810 0.4538575810 0.4335945811 0.4011235811 0.3659675811 0.3383795811 0.3227545812 0.3088385812 0.3112795812 0.3203125812 0.3327645813 0.3444825813 0.3601075813 0.3752445813 0.3901375814 0.4157715814 0.4284675814 0.4519045814 0.4780275815 0.5078125815 0.5449225815 0.5788575815 0.6140145816 0.6394045816 0.6550295816 0.6545415816 0.6511235817 0.6430665817 0.639165817 0.6406255817 0.6313485818 0.6335455818 0.6311045818 0.6367195818 0.6369635826 0.4655765826 0.47295826 0.4826665826 0.4960945827 0.504155827 0.5061045827 0.5063485827 0.5119635828 0.5202645828 0.5183115828 0.5290535828 0.5280765829 0.5256355829 0.5234385829 0.524175829 0.5202645830 0.5202645830 0.5202645830 0.5119635830 0.5043955831 0.5026865831 0.5004885831 0.492925831 0.4851075832 0.4809575832 0.4709475832 0.4594735832 0.4538575833 0.4479985833 0.4382325833 0.4340825833 0.4255375834 0.4147955834 0.4050295834 0.3901375834 0.3813485835 0.3776865842 0.5703125842 0.572515842 0.5761725842 0.5769045843 0.5747075843 0.5664065843 0.5566415843 0.5417485844 0.5339365844 0.5183115844 0.5104985844 0.5024415845 0.4870615845 0.4948735845 0.4924325845 0.4882815846 0.4831545846 0.4733895846 0.4704595846 0.4694825847 0.4667975847 0.46465847 0.4667975847 0.4675295848 0.4675295848 0.4636235848 0.4655765848 0.461675849 0.4606935849 0.4577645849 0.4460455849 0.4450685850 0.4411625850 0.4396975850 0.4284675850 0.4206545851 0.4108895859 0.4772955859 0.4670415859 0.4636235859 0.4694825860 0.4785165860 0.4831545860 0.4890145860 0.4890145861 0.4863285861 0.4841315861 0.4909675861 0.492925862 0.5004885862 0.5034185862 0.5039065862 0.5046395863 0.5104985863 0.5153815863 0.5280765863 0.5339365864 0.5336915864 0.5375985864 0.5134285864 0.5065925865 0.4968265865 0.4968265865 0.4890145865 0.4909675866 0.4860845866 0.4768075866 0.4753425866 0.4733895867 0.4592295867 0.4494635867 0.4343265867 0.4279795868 0.4267585876 0.6745615876 0.6584475876 0.6384285876 0.6115725877 0.5922855877 0.576665877 0.5588385877 0.5515145878 0.5417485878 0.5319825878 0.5280765878 0.520025879 0.5183115879 0.5053715879 0.5104985879 0.5085455880 0.4948735880 0.4919435880 0.4909675880 0.4921885881 0.4968265881 0.4934085881 0.4987795881 0.5021975882 0.5114755882 0.5163575882 0.5083015882 0.4948735883 0.4714365883 0.4499515883 0.4301765883 0.4201665884 0.4160165884 0.4196785884 0.4277345884 0.4362795896 0.5104985896 0.5095215896 0.5043955896 0.4941415897 0.4865725897 0.4802255897 0.4772955897 0.4731455898 0.4694825898 0.4753425898 0.4731455898 0.4636235899 0.4655765899 0.4558115899 0.4492195899 0.4282235900 0.4226075900 0.4128425900 0.4011235900 0.3969735901 0.3928225901 0.3945315901 0.4030765901 0.4121095902 0.4282235902 0.4438485902 0.4628915902 0.4785165902 0.5007325903 0.5217295903 0.5417485903 0.5568855903 0.5632325904 0.5607915904 0.5515145904 0.5485845904 0.5427255916 0.4785165916 0.4790045916 0.4792485916 0.4831545917 0.4812015917 0.4812015917 0.4863285917 0.4882815918 0.4851075918 0.4809575918 0.4753425918 0.4748545919 0.4714365919 0.4733895919 0.4792485919 0.4785165920 0.4782715920 0.4843755920 0.4890145920 0.4907235921 0.4978035921 0.5046395921 0.5104985921 0.5104985922 0.5080575922 0.4987795922 0.5007325922 0.4919435923 0.4948735923 0.4968265923 0.5019535923 0.5078125924 0.5085455924 0.5046395924 0.4948735924 0.4870615932 0.5017095932 0.4968265932 0.4851075932 0.4821785933 0.4714365933 0.4633795933 0.4567875933 0.4538575934 0.4577645934 0.468755934 0.4968265934 0.5063485935 0.5222175935 0.5332035935 0.5339365935 0.5319825936 0.5339365936 0.5378425936 0.5415045936 0.5573735937 0.5573735937 0.5549325937 0.5476075937 0.5495615938 0.5390625938 0.5410165938 0.5410165938 0.5378425939 0.5300295939 0.524175939 0.5173345939 0.510015940 0.5046395940 0.4948735940 0.4865725940 0.4841315941 0.4772955948 0.5234385948 0.5397955948 0.5449225948 0.5493165949 0.5495615949 0.545415949 0.5437015949 0.5332035950 0.5256355950 0.5222175950 0.5202645950 0.5261235951 0.5339365951 0.5417485951 0.5568855951 0.5683595952 0.5742195952 0.5749515952 0.572515952 0.566655953 0.5451665953 0.5300295953 0.5102545953 0.4978035954 0.4860845954 0.4812015954 0.4826665954 0.4848635955 0.492925955 0.504155955 0.5163575955 0.5351565956 0.5417485956 0.5488285956 0.5507815956 0.5510255957 0.5527345965 0.4226075965 0.4296885965 0.4323735965 0.4401865966 0.4460455966 0.4460455966 0.4472665966 0.4323735967 0.4294435967 0.4301765967 0.441655967 0.4611825968 0.4807135968 0.5046395968 0.524175968 0.5358895969 0.5446785969 0.5456545969 0.5510255969 0.5534675970 0.5510255970 0.551275970 0.5490725970 0.5417485971 0.5395515971 0.5393075971 0.5437015971 0.5451665972 0.5466315972 0.5529795972 0.5437015972 0.5397955973 0.5329595973 0.5261235973 0.521245973 0.5163575974 0.5151375982 0.4323735982 0.4265145982 0.4201665982 0.4101565983 0.4011235983 0.4082035983 0.4157715983 0.4294435984 0.4472665984 0.46465984 0.4865725984 0.4985355985 0.5046395985 0.5136725985 0.5183115985 0.5124515986 0.5104985986 0.4987795986 0.4890145986 0.4765625987 0.4650885987 0.4648445987 0.4711915987 0.4882815988 0.5046395988 0.5192875988 0.5339365988 0.5358895989 0.5319825989 0.5317385989 0.5334475989 0.5280765990 0.5278325990 0.5222175990 0.5197755990 0.5234385991 0.5180666002 0.5046396002 0.5046396002 0.4985356002 0.4982916003 0.4968266003 0.4960946003 0.4948736003 0.4909676004 0.4851076004 0.4804696004 0.4792486004 0.4770516005 0.4733896005 0.4733896005 0.4733896005 0.4675296006 0.4650886006 0.4597176006 0.4499516006 0.4460456007 0.4401866007 0.433356007 0.4265146007 0.4226076007 0.4167486008 0.4089366008 0.4108896008 0.4143076008 0.4260256009 0.4460456009 0.4558116009 0.4604496009 0.4572756010 0.4553226010 0.4489756010 0.4479986021 0.5007326021 0.5039066021 0.5078126021 0.5036626022 0.5026866022 0.5024416022 0.5007326022 0.4968266023 0.495856023 0.4924326023 0.4909676023 0.4860846024 0.4851076024 0.4846196024 0.4870616024 0.488776025 0.4948736025 0.4960946025 0.5026866025 0.5085456026 0.5202646026 0.5239266026 0.5275886026 0.5253916027 0.5178226027 0.5046396027 0.4909676027 0.4772956027 0.4704596028 0.4633796028 0.4655766028 0.4655766028 0.4672856029 0.4682626029 0.4707036029 0.4704596029 0.4675296037 0.4724126037 0.4675296037 0.4626466037 0.4538576038 0.4440926038 0.4479986038 0.4497076038 0.4528816039 0.4636236039 0.4709476039 0.4733896039 0.4694826040 0.4577646040 0.4519046040 0.4489756040 0.4514166041 0.4577646041 0.4711916041 0.4868166041 0.4968266042 0.5102546042 0.524176042 0.5319826042 0.53546043 0.5356456043 0.5300296043 0.5273446043 0.52716043 0.52716044 0.514166044 0.5222176044 0.514166044 0.510016045 0.5026866045 0.4968266045 0.4938966045 0.492926053 0.5124516053 0.5102546053 0.5065926053 0.5043956054 0.5021976054 0.5004886054 0.4963386054 0.4941416055 0.4941416055 0.4919436055 0.4909676055 0.4907236056 0.4868166056 0.4890146056 0.4909676056 0.4909676057 0.4946296057 0.4968266057 0.4968266057 0.4987796057 0.4924326058 0.4909676058 0.4890146058 0.4851076058 0.4841316059 0.478766059 0.4851076059 0.4890146059 0.4870616060 0.4868166060 0.4821786060 0.4812016060 0.4802256061 0.4812016061 0.4812016061 0.4812016061 0.4826666070 0.5456546070 0.5397956070 0.5280766070 0.5261236071 0.514166071 0.5178226071 0.520026071 0.5278326072 0.5280766072 0.5319826072 0.5319826072 0.5336916073 0.5319826073 0.5280766073 0.524176073 0.5202646074 0.524176074 0.5163576074 0.5219736074 0.5175786075 0.5124516075 0.5065926075 0.4968266075 0.495856075 0.4909676076 0.489996076 0.4860846076 0.4882816076 0.4868166077 0.4851076077 0.4831546077 0.4831546077 0.4848636078 0.4924326078 0.4812016078 0.4924326078 0.5017096087 0.4909676087 0.492926087 0.4968266087 0.5021976088 0.4968266088 0.5007326088 0.4963386088 0.4960946089 0.492926089 0.4941416089 0.4985356089 0.4968266090 0.4995126090 0.4982916090 0.4948736090 0.4978036091 0.5046396091 0.5075686091 0.5136726091 0.5158696092 0.5202646092 0.5197756092 0.5202646092 0.5163576093 0.5114756093 0.5061046093 0.5019536093 0.4965826093 0.4968266094 0.4919436094 0.4902346094 0.4909676094 0.4890146095 0.4948736095 0.492926095 0.492926095 0.4948736107 0.4851076107 0.4821786107 0.4821786107 0.4890146108 0.4902346108 0.4868166108 0.4865726108 0.4904796109 0.4941416109 0.4948736109 0.5007326109 0.5046396110 0.5063486110 0.5065926110 0.5075686110 0.5056156111 0.5043956111 0.5019536111 0.4968266111 0.4987796112 0.4941416112 0.4968266112 0.5007326112 0.5026866113 0.4997566113 0.5007326113 0.4968266113 0.4963386113 0.4882816114 0.4890146114 0.4890146114 0.4841316114 0.482916115 0.479986115 0.4792486115 0.4824226115 0.4792486127 0.4792486127 0.4860846127 0.4938966127 0.495856128 0.5026866128 0.5104986128 0.5114756128 0.5175786129 0.5175786129 0.517096129 0.5219736129 0.521246130 0.5136726130 0.5124516130 0.5104986130 0.5119636131 0.5080576131 0.5065926131 0.5026866131 0.5024416132 0.5021976132 0.4987796132 0.4968266132 0.4909676133 0.4885256133 0.4841316133 0.4841316133 0.4831546134 0.4809576134 0.4753426134 0.4753426134 0.4753426135 0.4731456135 0.4733896135 0.4733896135 0.4792486143 0.5180666143 0.5144046143 0.5046396143 0.4968266144 0.4963386144 0.4909676144 0.4904796144 0.4909676145 0.4921886145 0.4885256145 0.4851076145 0.4863286146 0.4848636146 0.4882816146 0.488776146 0.4921886147 0.5007326147 0.5065926147 0.5036626147 0.5085456148 0.5080576148 0.5026866148 0.5019536148 0.5024416149 0.4987796149 0.4965826149 0.492926149 0.4890146150 0.4902346150 0.4902346150 0.4885256150 0.4924326151 0.4924326151 0.4943856151 0.4943856151 0.4980476152 0.5021976159 0.4936526159 0.5039066159 0.5056156159 0.5119636160 0.5156256160 0.5234386160 0.5144046160 0.5104986161 0.5097666161 0.5039066161 0.5019536161 0.4987796162 0.4963386162 0.492926162 0.4890146162 0.485846163 0.4848636163 0.4907236163 0.4890146163 0.5007326164 0.4963386164 0.5007326164 0.5046396164 0.5065926165 0.5046396165 0.5061046165 0.5065926165 0.504156166 0.5046396166 0.5046396166 0.4987796166 0.4968266167 0.4963386167 0.495856167 0.4943856167 0.4924326168 0.4909676176 0.4948736176 0.4968266176 0.4890146176 0.4907236177 0.4924326177 0.4909676177 0.4924326177 0.4890146178 0.4851076178 0.488776178 0.4860846178 0.4865726179 0.4851076179 0.4826666179 0.4870616179 0.4890146180 0.4890146180 0.4890146180 0.4890146180 0.4885256181 0.488776181 0.4812016181 0.4860846181 0.4870616182 0.4909676182 0.4863286182 0.4831546182 0.4804696183 0.4831546183 0.4821786183 0.4851076183 0.482916184 0.4885256184 0.4870616184 0.4870616184 0.4948736184 0.4909676193 0.4943856193 0.492926193 0.4948736193 0.492926194 0.4968266194 0.4921886194 0.489996194 0.492926195 0.4909676195 0.4909676195 0.4902346195 0.4870616196 0.4851076196 0.4909676196 0.4753426196 0.4824226197 0.4812016197 0.4809576197 0.4772956197 0.4782716198 0.478766198 0.4804696198 0.4812016198 0.482916199 0.4831546199 0.4851076199 0.4851076199 0.4843756200 0.4841316200 0.4885256200 0.4812016200 0.482916201 0.492926201 0.4902346201 0.4948736201 0.5065926202 0.5078126213 0.5007326213 0.5021976213 0.5004886213 0.5046396214 0.5026866214 0.5058596214 0.5019536214 0.4948736215 0.4924326215 0.4904796215 0.4946296215 0.4921886216 0.4943856216 0.495856216 0.4890146216 0.4890146217 0.4890146217 0.4919436217 0.4936526217 0.4851076218 0.4890146218 0.4904796218 0.492926218 0.4946296219 0.5004886219 0.4948736219 0.4965826219 0.4968266220 0.5017096220 0.5046396220 0.4948736220 0.4948736221 0.4926766221 0.4909676221 0.4914556221 0.4909676222 0.4868166233 0.5085456233 0.5085456233 0.5104986233 0.5114756234 0.5085456234 0.5085456234 0.5058596234 0.5051276235 0.5021976235 0.4968266235 0.4948736235 0.4941416236 0.4885256236 0.4831546236 0.4865726236 0.4782716237 0.4750986237 0.4724126237 0.4675296237 0.4597176238 0.4650886238 0.4636236238 0.4636236238 0.4665536239 0.4714366239 0.4733896239 0.4753426239 0.4792486240 0.4804696240 0.482916240 0.482916240 0.488776241 0.4870616241 0.4890146241 0.492926241 0.4890146242 0.4919436249 0.4948736249 0.4943856249 0.4948736249 0.4948736250 0.4948736250 0.4968266250 0.4968266250 0.5007326251 0.5036626251 0.4987796251 0.5065926251 0.5058596252 0.5061046252 0.5061046252 0.5061046252 0.4987796253 0.56253 0.4948736253 0.4968266253 0.4948736254 0.4948736254 0.482916254 0.4919436254 0.4909676255 0.4907236255 0.4831546255 0.492926255 0.4909676256 0.4907236256 0.4851076256 0.492926256 0.492926256 0.4909676257 0.492926257 0.4750986257 0.4890146257 0.4851076265 0.4997566265 0.5007326265 0.504156265 0.5019536266 0.5056156266 0.5021976266 0.4997566266 0.4980476267 0.4890146267 0.492926267 0.4919436267 0.4965826268 0.4963386268 0.5083016268 0.5039066268 0.5085456269 0.5202646269 0.5085456269 0.5039066269 0.504156270 0.5058596270 0.5026866270 0.5017096270 0.5007326271 0.5004886271 0.4987796271 0.4968266271 0.4987796272 0.4978036272 0.4985356272 0.4963386272 0.4960946273 0.4948736273 0.4948736273 0.4946296273 0.492926274 0.492926282 0.4909676282 0.488776282 0.4924326282 0.492926283 0.489996283 0.4946296283 0.4909676283 0.4948736284 0.4926766284 0.492926284 0.4924326284 0.4921886285 0.4924326285 0.4946296285 0.4919436285 0.4904796286 0.4919436286 0.4948736286 0.4938966286 0.4987796287 0.4926766287 0.4968266287 0.4987796287 0.4963386288 0.5004886288 0.4985356288 0.4960946288 0.4980476289 0.5002446289 0.4968266289 0.4968266289 0.5004886290 0.4987796290 0.4948736290 0.4965826290 0.4987796291 0.4985356299 0.4870616299 0.4907236299 0.4812016299 0.4870616300 0.482916300 0.4841316300 0.4792486300 0.4880376301 0.495856301 0.4968266301 0.4902346301 0.4904796302 0.4909676302 0.4904796302 0.4885256302 0.4890146303 0.4885256303 0.4860846303 0.4831546303 0.4846196304 0.4870616304 0.4863286304 0.489996304 0.4904796305 0.4909676305 0.4943856305 0.4948736305 0.4960946306 0.4943856306 0.4987796306 0.5104986306 0.5063486307 0.5085456307 0.5058596307 0.5124516307 0.5095216318 0.4841316318 0.4851076318 0.4870616318 0.4904796319 0.4909676319 0.4909676319 0.4863286319 0.4895026320 0.4902346320 0.4880376320 0.4880376320 0.4897466321 0.4882816321 0.4890146321 0.4890146321 0.4880376322 0.4904796322 0.4921886322 0.4909676322 0.4904796323 0.4885256323 0.4870616323 0.4885256323 0.4831546324 0.4846196324 0.4851076324 0.4831546324 0.4809576325 0.4826666325 0.4792486325 0.4821786325 0.4831546326 0.4812016326 0.4904796326 0.4924326326 0.492926327 0.4968266338 0.488776338 0.4882816338 0.4863286338 0.4890146339 0.4885256339 0.4870616339 0.4870616339 0.4843756340 0.4841316340 0.4831546340 0.4846196340 0.4851076341 0.4870616341 0.4890146341 0.4885256341 0.4870616342 0.4890146342 0.4885256342 0.4904796342 0.4909676343 0.4907236343 0.492926343 0.4948736343 0.4968266344 0.5043956344 0.5021976344 0.4995126344 0.5004886345 0.4987796345 0.4987796345 0.4987796345 0.4987796346 0.4968266346 0.4824226346 0.5007326346 0.5002446347 0.4982916354 0.4980476354 0.4909676354 0.4890146354 0.4890146355 0.4907236355 0.489996355 0.4909676355 0.488776356 0.4914556356 0.4885256356 0.4909676356 0.4882816357 0.4846196357 0.4865726357 0.4851076357 0.4807136358 0.4804696358 0.4831546358 0.4826666358 0.4792486359 0.4772956359 0.4768076359 0.4753426359 0.4743656360 0.4772956360 0.4851076360 0.4831546360 0.488776361 0.4870616361 0.4909676361 0.4926766361 0.4890146362 0.4924326362 0.4909676362 0.492926362 0.4941416363 0.5036626370 0.5046396370 0.56370 0.5007326370 0.4985356371 0.4968266371 0.5007326371 0.5026866371 0.4987796372 0.4968266372 0.4965826372 0.4948736372 0.492926373 0.4921886373 0.4924326373 0.4926766373 0.4909676374 0.492926374 0.4924326374 0.4943856374 0.4909676375 0.489996375 0.4924326375 0.4909676375 0.4924326376 0.4904796376 0.4904796376 0.4865726376 0.4890146377 0.4860846377 0.4870616377 0.4851076377 0.4885256378 0.4909676378 0.4890146378 0.4865726378 0.4846196379 0.4763186387 0.5007326387 0.4987796387 0.4985356387 0.5026866388 0.5024416388 0.4987796388 0.5024416388 0.5007326389 0.5004886389 0.4963386389 0.5007326389 0.4987796390 0.4965826390 0.4987796390 0.4987796390 0.4987796391 0.5024416391 0.4963386391 0.4963386391 0.4985356392 0.4963386392 0.4968266392 0.4980476392 0.4968266393 0.4965826393 0.4941416393 0.4938966393 0.492926394 0.4909676394 0.4890146394 0.4880376394 0.4868166395 0.4851076395 0.4863286395 0.4863286395 0.4860846404 0.4890146404 0.4904796404 0.4868166404 0.4890146405 0.4902346405 0.4924326405 0.4885256405 0.4890146406 0.4882816406 0.4890146406 0.4863286406 0.4948736407 0.4924326407 0.4948736407 0.4968266407 0.5007326408 0.5065926408 0.5117196408 0.5124516408 0.5114756409 0.5104986409 0.5085456409 0.5075686409 0.504156409 0.5019536410 0.5021976410 0.4987796410 0.4987796410 0.4987796411 0.5007326411 0.4985356411 0.5021976411 0.5019536412 0.4987796412 0.4987796412 0.56412 0.4978036424 0.5024416424 0.4987796424 0.4909676424 0.5007326425 0.4987796425 0.5046396425 0.4987796425 0.5002446426 0.4968266426 0.4987796426 0.5002446426 0.4987796427 0.5007326427 0.5046396427 0.5007326427 0.5024416428 0.5004886428 0.56428 0.4968266428 0.4987796429 0.4968266429 0.4968266429 0.4968266429 0.4980476430 0.4968266430 0.4987796430 0.4960946430 0.5007326431 0.495856431 0.495856431 0.4965826431 0.4987796432 0.4948736432 0.495856432 0.4943856432 0.4946296433 0.492926433 0.4943856444 0.4890146444 0.4890146444 0.4926766444 0.492926445 0.4946296445 0.4968266445 0.4948736445 0.4968266446 0.4987796446 0.5007326446 0.5007326446 0.5017096447 0.5007326447 0.5007326447 0.4960946447 0.4982916448 0.4938966448 0.4946296448 0.4938966448 0.4948736449 0.4978036449 0.4960946449 0.4987796449 0.4968266450 0.4987796450 0.5007326450 0.4987796450 0.5007326451 0.4997566451 0.4968266451 0.4982916451 0.4953616452 0.4943856452 0.4948736452 0.4968266452 0.4909676459 0.4948736459 0.4948736459 0.4938966459 0.4948736460 0.4948736460 0.492926460 0.489996460 0.4909676461 0.4938966461 0.4909676461 0.4904796461 0.4890146462 0.4907236462 0.4907236462 0.4909676462 0.4890146463 0.4941416463 0.4938966463 0.4965826463 0.4968266464 0.4948736464 0.4968266464 0.4968266464 0.495856465 0.4987796465 0.4982916465 0.4987796465 0.5004886466 0.4980476466 0.5007326466 0.5007326466 0.5007326467 0.5017096467 0.4934086467 0.5007326467 0.5036626468 0.5017096475 0.492926475 0.4909676475 0.4890146475 0.488776476 0.4890146476 0.4907236476 0.4885256476 0.4890146477 0.4851076477 0.4890146477 0.4909676477 0.4865726478 0.4885256478 0.4897466478 0.4851076478 0.4885256479 0.4890146479 0.4890146479 0.4890146479 0.4870616480 0.4919436480 0.4890146480 0.4870616480 0.492926481 0.4875496481 0.4890146481 0.4902346481 0.4870616481 0.4890146482 0.4863286482 0.4831546482 0.4848636482 0.482916483 0.4851076483 0.4831546483 0.4831546483 0.4890146492 0.4851076492 0.4885256492 0.4890146492 0.4902346493 0.4902346493 0.4938966493 0.4938966493 0.4909676494 0.4924326494 0.4904796494 0.4904796494 0.4909676495 0.4909676495 0.489996495 0.4909676495 0.4895026496 0.4904796496 0.4921886496 0.4948736496 0.488776497 0.4902346497 0.4909676497 0.489996497 0.4938966498 0.4968266498 0.492926498 0.4909676498 0.4909676499 0.4890146499 0.4941416499 0.4902346499 0.4890146500 0.4870616500 0.4851076500 0.4870616500 0.4851076500 0.4821786509 0.4909676509 0.4904796509 0.492926509 0.4948736510 0.5007326510 0.492926510 0.4968266510 0.4870616511 0.4987796511 0.4987796511 0.4982916511 0.4987796512 0.5002446512 0.5036626512 0.4968266512 0.4982916513 0.4968266513 0.4982916513 0.495856513 0.4948736514 0.4948736514 0.4965826514 0.492926514 0.4948736515 0.492926515 0.4909676515 0.4909676515 0.4890146516 0.4851076516 0.4851076516 0.4824226516 0.4870616517 0.4812016517 0.4812016517 0.4792486517 0.4812016518 0.4812016529 0.4985356529 0.5007326529 0.4968266529 0.4995126530 0.5024416530 0.5007326530 0.5007326530 0.4987796531 0.5021976531 0.4975596531 0.5007326531 0.4987796532 0.4987796532 0.5004886532 0.5026866532 0.4965826533 0.4978036533 0.4968266533 0.5019536533 0.4948736534 0.4941416534 0.4948736534 0.4909676534 0.492926535 0.4909676535 0.4890146535 0.4890146535 0.4870616536 0.4831546536 0.4860846536 0.4812016536 0.4904796537 0.4870616537 0.492926537 0.4890146537 0.492926548 0.4997566548 0.4963386548 0.4948736548 0.4968266549 0.4965826549 0.4943856549 0.4968266549 0.5002446550 0.4987796550 0.4987796550 0.4987796550 0.4926766551 0.4978036551 0.5026866551 0.5007326551 0.5007326552 0.4987796552 0.4948736552 0.4948736552 0.4948736553 0.492926553 0.4948736553 0.4907236553 0.492926554 0.492926554 0.4909676554 0.4919436554 0.4919436555 0.4902346555 0.4941416555 0.4948736555 0.4924326556 0.4843756556 0.4870616556 0.4851076556 0.4870616557 0.4890146564 0.4948736564 0.4938966564 0.4948736564 0.4948736565 0.4963386565 0.4987796565 0.4982916565 0.4965826566 0.4968266566 0.492926566 0.4960946566 0.4926766567 0.4907236567 0.4907236567 0.4904796567 0.4865726568 0.4865726568 0.4831546568 0.4831546568 0.4772956569 0.4807136569 0.4919436569 0.4802256569 0.4826666570 0.4870616570 0.492926570 0.4987796570 0.5056156571 0.5065926571 0.5104986571 0.5085456571 0.5083016572 0.5097666572 0.5104986572 0.5065926572 0.5043956573 0.5092776580 0.4846196580 0.4890146580 0.4863286580 0.4870616581 0.4904796581 0.4870616581 0.4851076581 0.4860846582 0.4851076582 0.4831546582 0.4843756582 0.4831546583 0.4819346583 0.4831546583 0.4870616583 0.4851076584 0.4848636584 0.4902346584 0.4890146584 0.4904796585 0.4909676585 0.4968266585 0.4987796585 0.5004886586 0.4987796586 0.5039066586 0.5039066586 0.5080576587 0.5036626587 0.504156587 0.5019536587 0.5004886588 0.5034186588 0.5024416588 0.5024416588 0.5007326588 0.4985356597 0.492926597 0.4851076597 0.4870616597 0.4890146598 0.4885256598 0.4904796598 0.4870616598 0.4870616599 0.4868166599 0.4860846599 0.4865726599 0.4870616600 0.4890146600 0.4890146600 0.4882816600 0.4880376601 0.4890146601 0.4890146601 0.4902346601 0.489996602 0.489996602 0.4909676602 0.489996602 0.4909676603 0.492926603 0.4919436603 0.4941416603 0.4909676604 0.4870616604 0.4924326604 0.4948736604 0.4987796604 0.4946296605 0.4975596605 0.4946296605 0.4943856605 0.4985356614 0.4902346614 0.4907236614 0.4870616614 0.4851076615 0.4870616615 0.4846196615 0.4870616615 0.4851076616 0.4880376616 0.4851076616 0.4868166616 0.4870616617 0.4848636617 0.4870616617 0.4870616617 0.4870616618 0.4904796618 0.4882816618 0.4870616618 0.4890146619 0.4909676619 0.4860846619 0.4926766619 0.4909676620 0.4890146620 0.489996620 0.4943856620 0.492926621 0.489996621 0.4919436621 0.4907236621 0.4890146622 0.4941416622 0.492926622 0.4919436622 0.4926766632 0.4985356632 0.4968266632 0.495856632 0.4948736633 0.4948736633 0.4946296633 0.4985356633 0.4946296634 0.4909676634 0.4909676634 0.4909676634 0.4909676635 0.4865726635 0.4904796635 0.4909676635 0.492926636 0.5004886636 0.4880376636 0.488776636 0.4870616637 0.4890146637 0.4890146637 0.492926637 0.488776638 0.4909676638 0.4907236638 0.4890146638 0.4890146639 0.4909676639 0.4885256639 0.4870616639 0.4890146639 0.4890146640 0.4870616640 0.4902346640 0.4870616640 0.4868166651 0.5026866651 0.5046396651 0.5026866651 0.5024416652 0.5046396652 0.5004886652 0.504156652 0.5026866653 0.5004886653 0.492926653 0.4987796653 0.5007326654 0.5007326654 0.56654 0.5026866654 0.4987796655 0.4987796655 0.4968266655 0.492926655 0.495856656 0.495856656 0.4943856656 0.4948736656 0.4948736657 0.4936526657 0.492926657 0.4902346657 0.4902346657 0.488776658 0.4909676658 0.489996658 0.4831546658 0.4870616659 0.4851076659 0.4863286659 0.4851076659 0.4831546660 0.4846196667 0.4960946667 0.4968266667 0.4943856667 0.5002446668 0.5024416668 0.4987796668 0.5017096668 0.4987796669 0.5007326669 0.4987796669 0.4980476669 0.4968266670 0.4978036670 